,Timestamps,ECG
0,16-03-2021_08:16:00,2094
1,16-03-2021_08:16:00,1589
2,16-03-2021_08:16:00,2061
3,16-03-2021_08:16:00,1750
4,16-03-2021_08:16:00,1733
5,16-03-2021_08:16:00,2054
6,16-03-2021_08:16:00,1561
7,16-03-2021_08:16:00,2066
8,16-03-2021_08:16:00,1761
9,16-03-2021_08:16:00,1748
10,16-03-2021_08:16:00,2077
11,16-03-2021_08:16:00,1586
12,16-03-2021_08:16:00,2080
13,16-03-2021_08:16:00,1779
14,16-03-2021_08:16:00,1761
15,16-03-2021_08:16:00,2070
16,16-03-2021_08:16:00,1597
17,16-03-2021_08:16:00,2112
18,16-03-2021_08:16:00,1827
19,16-03-2021_08:16:00,1840
20,16-03-2021_08:16:00,2178
21,16-03-2021_08:16:00,1730
22,16-03-2021_08:16:00,2255
23,16-03-2021_08:16:00,1961
24,16-03-2021_08:16:00,1933
25,16-03-2021_08:16:00,2218
26,16-03-2021_08:16:00,1687
27,16-03-2021_08:16:00,2155
28,16-03-2021_08:16:00,1839
29,16-03-2021_08:16:00,1801
30,16-03-2021_08:16:00,2112
31,16-03-2021_08:16:00,1629
32,16-03-2021_08:16:00,2123
33,16-03-2021_08:16:00,1816
34,16-03-2021_08:16:00,1801
35,16-03-2021_08:16:00,2112
36,16-03-2021_08:16:00,1613
37,16-03-2021_08:16:00,2112
38,16-03-2021_08:16:00,1795
39,16-03-2021_08:16:00,1798
40,16-03-2021_08:16:00,2099
41,16-03-2021_08:16:00,1617
42,16-03-2021_08:16:00,2126
43,16-03-2021_08:16:00,1808
44,16-03-2021_08:16:00,1795
45,16-03-2021_08:16:00,2097
46,16-03-2021_08:16:00,1611
47,16-03-2021_08:16:00,2114
48,16-03-2021_08:16:00,1806
49,16-03-2021_08:16:00,1808
50,16-03-2021_08:16:00,2112
51,16-03-2021_08:16:00,1616
52,16-03-2021_08:16:00,2134
53,16-03-2021_08:16:00,1808
54,16-03-2021_08:16:00,1821
55,16-03-2021_08:16:00,2126
56,16-03-2021_08:16:00,1634
57,16-03-2021_08:16:00,2146
58,16-03-2021_08:16:00,1827
59,16-03-2021_08:16:00,1843
60,16-03-2021_08:16:00,2137
61,16-03-2021_08:16:00,1650
62,16-03-2021_08:16:00,2160
63,16-03-2021_08:16:00,1858
64,16-03-2021_08:16:00,1874
65,16-03-2021_08:16:00,2162
66,16-03-2021_08:16:00,1687
67,16-03-2021_08:16:00,2186
68,16-03-2021_08:16:00,1858
69,16-03-2021_08:16:00,1875
70,16-03-2021_08:16:00,2186
71,16-03-2021_08:16:00,1706
72,16-03-2021_08:16:00,2190
73,16-03-2021_08:16:00,1875
74,16-03-2021_08:16:00,1917
75,16-03-2021_08:16:00,2202
76,16-03-2021_08:16:00,1685
77,16-03-2021_08:16:00,2172
78,16-03-2021_08:16:00,1871
79,16-03-2021_08:16:00,1900
80,16-03-2021_08:16:00,2185
81,16-03-2021_08:16:00,1712
82,16-03-2021_08:16:00,2095
83,16-03-2021_08:16:00,1825
84,16-03-2021_08:16:00,2240
85,16-03-2021_08:16:00,3502
86,16-03-2021_08:16:00,3741
87,16-03-2021_08:16:00,2962
88,16-03-2021_08:16:00,2019
89,16-03-2021_08:16:00,1838
90,16-03-2021_08:16:00,2069
91,16-03-2021_08:16:00,1574
92,16-03-2021_08:16:00,2061
93,16-03-2021_08:16:00,1742
94,16-03-2021_08:16:00,1766
95,16-03-2021_08:16:00,2060
96,16-03-2021_08:16:00,1594
97,16-03-2021_08:16:00,2111
98,16-03-2021_08:16:01,1777
99,16-03-2021_08:16:01,1813
100,16-03-2021_08:16:01,2097
101,16-03-2021_08:16:01,1629
102,16-03-2021_08:16:01,2129
103,16-03-2021_08:16:01,1792
104,16-03-2021_08:16:01,1831
105,16-03-2021_08:16:01,2098
106,16-03-2021_08:16:01,1648
107,16-03-2021_08:16:01,2172
108,16-03-2021_08:16:01,1856
109,16-03-2021_08:16:01,1910
110,16-03-2021_08:16:01,2226
111,16-03-2021_08:16:01,1794
112,16-03-2021_08:16:01,2319
113,16-03-2021_08:16:01,1963
114,16-03-2021_08:16:01,1979
115,16-03-2021_08:16:01,2217
116,16-03-2021_08:16:01,1712
117,16-03-2021_08:16:01,2207
118,16-03-2021_08:16:01,1859
119,16-03-2021_08:16:01,1889
120,16-03-2021_08:16:01,2160
121,16-03-2021_08:16:01,1701
122,16-03-2021_08:16:01,2223
123,16-03-2021_08:16:01,1886
124,16-03-2021_08:16:01,1937
125,16-03-2021_08:16:01,2206
126,16-03-2021_08:16:01,1729
127,16-03-2021_08:16:01,2251
128,16-03-2021_08:16:01,1923
129,16-03-2021_08:16:01,1969
130,16-03-2021_08:16:01,2246
131,16-03-2021_08:16:01,1775
132,16-03-2021_08:16:01,2297
133,16-03-2021_08:16:01,1953
134,16-03-2021_08:16:01,2009
135,16-03-2021_08:16:01,2266
136,16-03-2021_08:16:01,1808
137,16-03-2021_08:16:01,2328
138,16-03-2021_08:16:01,1971
139,16-03-2021_08:16:01,2032
140,16-03-2021_08:16:01,2289
141,16-03-2021_08:16:01,1823
142,16-03-2021_08:16:01,2333
143,16-03-2021_08:16:01,1978
144,16-03-2021_08:16:01,2033
145,16-03-2021_08:16:01,2287
146,16-03-2021_08:16:01,1813
147,16-03-2021_08:16:01,2321
148,16-03-2021_08:16:01,1970
149,16-03-2021_08:16:01,2030
150,16-03-2021_08:16:01,2276
151,16-03-2021_08:16:01,1797
152,16-03-2021_08:16:01,2314
153,16-03-2021_08:16:01,1941
154,16-03-2021_08:16:01,2000
155,16-03-2021_08:16:01,2237
156,16-03-2021_08:16:01,1775
157,16-03-2021_08:16:01,2288
158,16-03-2021_08:16:01,1936
159,16-03-2021_08:16:01,1977
160,16-03-2021_08:16:01,2235
161,16-03-2021_08:16:01,1780
162,16-03-2021_08:16:01,2298
163,16-03-2021_08:16:01,1920
164,16-03-2021_08:16:01,1965
165,16-03-2021_08:16:01,2192
166,16-03-2021_08:16:01,1732
167,16-03-2021_08:16:01,2257
168,16-03-2021_08:16:01,1894
169,16-03-2021_08:16:01,1904
170,16-03-2021_08:16:01,2063
171,16-03-2021_08:16:01,1817
172,16-03-2021_08:16:01,2970
173,16-03-2021_08:16:01,3739
174,16-03-2021_08:16:01,3342
175,16-03-2021_08:16:01,2567
176,16-03-2021_08:16:01,1714
177,16-03-2021_08:16:01,2123
178,16-03-2021_08:16:01,1721
179,16-03-2021_08:16:01,1771
180,16-03-2021_08:16:01,2007
181,16-03-2021_08:16:01,1549
182,16-03-2021_08:16:01,2066
183,16-03-2021_08:16:01,1686
184,16-03-2021_08:16:01,1776
185,16-03-2021_08:16:01,2004
186,16-03-2021_08:16:01,1560
187,16-03-2021_08:16:01,2093
188,16-03-2021_08:16:01,1723
189,16-03-2021_08:16:01,1776
190,16-03-2021_08:16:01,2006
191,16-03-2021_08:16:01,1548
192,16-03-2021_08:16:01,2075
193,16-03-2021_08:16:01,1697
194,16-03-2021_08:16:01,1814
195,16-03-2021_08:16:01,2077
196,16-03-2021_08:16:01,1649
197,16-03-2021_08:16:01,2224
198,16-03-2021_08:16:01,1885
199,16-03-2021_08:16:02,1993
200,16-03-2021_08:16:02,2201
201,16-03-2021_08:16:02,1717
202,16-03-2021_08:16:02,2217
203,16-03-2021_08:16:02,1812
204,16-03-2021_08:16:02,1872
205,16-03-2021_08:16:02,2089
206,16-03-2021_08:16:02,1615
207,16-03-2021_08:16:02,2152
208,16-03-2021_08:16:02,1755
209,16-03-2021_08:16:02,1840
210,16-03-2021_08:16:02,2066
211,16-03-2021_08:16:02,1612
212,16-03-2021_08:16:02,2150
213,16-03-2021_08:16:02,1775
214,16-03-2021_08:16:02,1865
215,16-03-2021_08:16:02,2103
216,16-03-2021_08:16:02,1650
217,16-03-2021_08:16:02,2179
218,16-03-2021_08:16:02,1796
219,16-03-2021_08:16:02,1900
220,16-03-2021_08:16:02,2128
221,16-03-2021_08:16:02,1665
222,16-03-2021_08:16:02,2199
223,16-03-2021_08:16:02,1811
224,16-03-2021_08:16:02,1919
225,16-03-2021_08:16:02,2131
226,16-03-2021_08:16:02,1679
227,16-03-2021_08:16:02,2209
228,16-03-2021_08:16:02,1822
229,16-03-2021_08:16:02,1921
230,16-03-2021_08:16:02,2130
231,16-03-2021_08:16:02,1687
232,16-03-2021_08:16:02,2225
233,16-03-2021_08:16:02,1821
234,16-03-2021_08:16:02,1919
235,16-03-2021_08:16:02,2138
236,16-03-2021_08:16:02,1695
237,16-03-2021_08:16:02,2231
238,16-03-2021_08:16:02,1831
239,16-03-2021_08:16:02,1947
240,16-03-2021_08:16:02,2147
241,16-03-2021_08:16:02,1728
242,16-03-2021_08:16:02,2282
243,16-03-2021_08:16:02,1872
244,16-03-2021_08:16:02,1974
245,16-03-2021_08:16:02,2204
246,16-03-2021_08:16:02,1778
247,16-03-2021_08:16:02,2298
248,16-03-2021_08:16:02,1856
249,16-03-2021_08:16:02,1970
250,16-03-2021_08:16:02,2183
251,16-03-2021_08:16:02,1727
252,16-03-2021_08:16:02,2256
253,16-03-2021_08:16:02,1805
254,16-03-2021_08:16:02,1842
255,16-03-2021_08:16:02,2291
256,16-03-2021_08:16:02,2495
257,16-03-2021_08:16:02,4095
258,16-03-2021_08:16:02,3214
259,16-03-2021_08:16:02,2400
260,16-03-2021_08:16:02,2242
261,16-03-2021_08:16:02,1734
262,16-03-2021_08:16:02,2245
263,16-03-2021_08:16:02,1832
264,16-03-2021_08:16:02,1968
265,16-03-2021_08:16:02,2144
266,16-03-2021_08:16:02,1698
267,16-03-2021_08:16:02,2247
268,16-03-2021_08:16:02,1829
269,16-03-2021_08:16:02,1983
270,16-03-2021_08:16:02,2183
271,16-03-2021_08:16:02,1715
272,16-03-2021_08:16:02,2291
273,16-03-2021_08:16:02,1792
274,16-03-2021_08:16:02,2002
275,16-03-2021_08:16:02,2150
276,16-03-2021_08:16:02,1664
277,16-03-2021_08:16:02,2246
278,16-03-2021_08:16:02,1792
279,16-03-2021_08:16:02,1998
280,16-03-2021_08:16:02,2218
281,16-03-2021_08:16:02,1789
282,16-03-2021_08:16:02,2397
283,16-03-2021_08:16:02,1933
284,16-03-2021_08:16:02,2116
285,16-03-2021_08:16:02,2224
286,16-03-2021_08:16:02,1709
287,16-03-2021_08:16:02,2292
288,16-03-2021_08:16:02,1763
289,16-03-2021_08:16:02,1953
290,16-03-2021_08:16:02,2103
291,16-03-2021_08:16:02,1639
292,16-03-2021_08:16:02,2249
293,16-03-2021_08:16:02,1737
294,16-03-2021_08:16:02,1957
295,16-03-2021_08:16:02,2112
296,16-03-2021_08:16:02,1628
297,16-03-2021_08:16:02,2275
298,16-03-2021_08:16:03,1751
299,16-03-2021_08:16:03,1992
300,16-03-2021_08:16:03,2123
301,16-03-2021_08:16:03,1670
302,16-03-2021_08:16:03,2288
303,16-03-2021_08:16:03,1778
304,16-03-2021_08:16:03,2069
305,16-03-2021_08:16:03,2208
306,16-03-2021_08:16:03,1796
307,16-03-2021_08:16:03,2342
308,16-03-2021_08:16:03,1797
309,16-03-2021_08:16:03,2083
310,16-03-2021_08:16:03,2207
311,16-03-2021_08:16:03,1759
312,16-03-2021_08:16:03,2389
313,16-03-2021_08:16:03,1843
314,16-03-2021_08:16:03,2116
315,16-03-2021_08:16:03,2222
316,16-03-2021_08:16:03,1711
317,16-03-2021_08:16:03,2337
318,16-03-2021_08:16:03,1781
319,16-03-2021_08:16:03,2041
320,16-03-2021_08:16:03,2129
321,16-03-2021_08:16:03,1687
322,16-03-2021_08:16:03,2337
323,16-03-2021_08:16:03,1786
324,16-03-2021_08:16:03,2095
325,16-03-2021_08:16:03,2161
326,16-03-2021_08:16:03,1739
327,16-03-2021_08:16:03,2374
328,16-03-2021_08:16:03,1792
329,16-03-2021_08:16:03,2074
330,16-03-2021_08:16:03,2162
331,16-03-2021_08:16:03,1758
332,16-03-2021_08:16:03,2366
333,16-03-2021_08:16:03,1753
334,16-03-2021_08:16:03,2073
335,16-03-2021_08:16:03,2140
336,16-03-2021_08:16:03,1716
337,16-03-2021_08:16:03,2336
338,16-03-2021_08:16:03,1706
339,16-03-2021_08:16:03,1908
340,16-03-2021_08:16:03,2127
341,16-03-2021_08:16:03,2229
342,16-03-2021_08:16:03,4095
343,16-03-2021_08:16:03,3418
344,16-03-2021_08:16:03,2570
345,16-03-2021_08:16:03,2134
346,16-03-2021_08:16:03,1606
347,16-03-2021_08:16:03,2214
348,16-03-2021_08:16:03,1597
349,16-03-2021_08:16:03,1893
350,16-03-2021_08:16:03,1969
351,16-03-2021_08:16:03,1546
352,16-03-2021_08:16:03,2169
353,16-03-2021_08:16:03,1607
354,16-03-2021_08:16:03,1920
355,16-03-2021_08:16:03,1981
356,16-03-2021_08:16:03,1569
357,16-03-2021_08:16:03,2181
358,16-03-2021_08:16:03,1609
359,16-03-2021_08:16:03,1933
360,16-03-2021_08:16:03,1981
361,16-03-2021_08:16:03,1556
362,16-03-2021_08:16:03,2191
363,16-03-2021_08:16:03,1648
364,16-03-2021_08:16:03,1969
365,16-03-2021_08:16:03,2027
366,16-03-2021_08:16:03,1651
367,16-03-2021_08:16:03,2294
368,16-03-2021_08:16:03,1776
369,16-03-2021_08:16:03,2095
370,16-03-2021_08:16:03,2122
371,16-03-2021_08:16:03,1696
372,16-03-2021_08:16:03,2277
373,16-03-2021_08:16:03,1697
374,16-03-2021_08:16:03,2000
375,16-03-2021_08:16:03,2065
376,16-03-2021_08:16:03,1664
377,16-03-2021_08:16:03,2269
378,16-03-2021_08:16:03,1691
379,16-03-2021_08:16:03,2011
380,16-03-2021_08:16:03,2057
381,16-03-2021_08:16:03,1659
382,16-03-2021_08:16:03,2260
383,16-03-2021_08:16:03,1699
384,16-03-2021_08:16:03,2022
385,16-03-2021_08:16:03,2071
386,16-03-2021_08:16:03,1677
387,16-03-2021_08:16:03,2273
388,16-03-2021_08:16:03,1716
389,16-03-2021_08:16:03,2028
390,16-03-2021_08:16:03,2060
391,16-03-2021_08:16:03,1681
392,16-03-2021_08:16:03,2283
393,16-03-2021_08:16:03,1727
394,16-03-2021_08:16:03,2061
395,16-03-2021_08:16:03,2096
396,16-03-2021_08:16:03,1715
397,16-03-2021_08:16:03,2280
398,16-03-2021_08:16:03,1742
399,16-03-2021_08:16:04,2083
400,16-03-2021_08:16:04,2112
401,16-03-2021_08:16:04,1727
402,16-03-2021_08:16:04,2303
403,16-03-2021_08:16:04,1755
404,16-03-2021_08:16:04,2098
405,16-03-2021_08:16:04,2112
406,16-03-2021_08:16:04,1695
407,16-03-2021_08:16:04,2299
408,16-03-2021_08:16:04,1741
409,16-03-2021_08:16:04,2062
410,16-03-2021_08:16:04,2085
411,16-03-2021_08:16:04,1728
412,16-03-2021_08:16:04,2291
413,16-03-2021_08:16:04,1706
414,16-03-2021_08:16:04,2068
415,16-03-2021_08:16:04,2105
416,16-03-2021_08:16:04,1733
417,16-03-2021_08:16:04,2271
418,16-03-2021_08:16:04,1709
419,16-03-2021_08:16:04,2063
420,16-03-2021_08:16:04,2086
421,16-03-2021_08:16:04,1695
422,16-03-2021_08:16:04,2249
423,16-03-2021_08:16:04,1561
424,16-03-2021_08:16:04,2022
425,16-03-2021_08:16:04,2480
426,16-03-2021_08:16:04,3181
427,16-03-2021_08:16:04,4095
428,16-03-2021_08:16:04,2250
429,16-03-2021_08:16:04,2128
430,16-03-2021_08:16:04,1933
431,16-03-2021_08:16:04,1549
432,16-03-2021_08:16:04,2113
433,16-03-2021_08:16:04,1519
434,16-03-2021_08:16:04,1875
435,16-03-2021_08:16:04,1881
436,16-03-2021_08:16:04,1520
437,16-03-2021_08:16:04,2118
438,16-03-2021_08:16:04,1562
439,16-03-2021_08:16:04,1924
440,16-03-2021_08:16:04,1936
441,16-03-2021_08:16:04,1552
442,16-03-2021_08:16:04,2147
443,16-03-2021_08:16:04,1596
444,16-03-2021_08:16:04,1941
445,16-03-2021_08:16:04,1962
446,16-03-2021_08:16:04,1607
447,16-03-2021_08:16:04,2213
448,16-03-2021_08:16:04,1669
449,16-03-2021_08:16:04,2047
450,16-03-2021_08:16:04,2072
451,16-03-2021_08:16:04,1745
452,16-03-2021_08:16:04,2355
453,16-03-2021_08:16:04,1792
454,16-03-2021_08:16:04,2137
455,16-03-2021_08:16:04,2101
456,16-03-2021_08:16:04,1711
457,16-03-2021_08:16:04,2287
458,16-03-2021_08:16:04,1684
459,16-03-2021_08:16:04,2062
460,16-03-2021_08:16:04,2029
461,16-03-2021_08:16:04,1697
462,16-03-2021_08:16:04,2257
463,16-03-2021_08:16:04,1664
464,16-03-2021_08:16:04,2064
465,16-03-2021_08:16:04,2061
466,16-03-2021_08:16:04,1712
467,16-03-2021_08:16:04,2304
468,16-03-2021_08:16:04,1717
469,16-03-2021_08:16:04,2125
470,16-03-2021_08:16:04,2096
471,16-03-2021_08:16:04,1746
472,16-03-2021_08:16:04,2362
473,16-03-2021_08:16:04,1770
474,16-03-2021_08:16:04,2151
475,16-03-2021_08:16:04,2129
476,16-03-2021_08:16:04,1793
477,16-03-2021_08:16:04,2364
478,16-03-2021_08:16:04,1792
479,16-03-2021_08:16:04,2164
480,16-03-2021_08:16:04,2134
481,16-03-2021_08:16:04,1806
482,16-03-2021_08:16:04,2374
483,16-03-2021_08:16:04,1808
484,16-03-2021_08:16:04,2192
485,16-03-2021_08:16:04,2149
486,16-03-2021_08:16:04,1825
487,16-03-2021_08:16:04,2386
488,16-03-2021_08:16:04,1819
489,16-03-2021_08:16:04,2199
490,16-03-2021_08:16:04,2166
491,16-03-2021_08:16:04,1829
492,16-03-2021_08:16:04,2400
493,16-03-2021_08:16:04,1825
494,16-03-2021_08:16:04,2211
495,16-03-2021_08:16:04,2182
496,16-03-2021_08:16:04,1874
497,16-03-2021_08:16:04,2405
498,16-03-2021_08:16:05,1827
499,16-03-2021_08:16:05,2229
500,16-03-2021_08:16:05,2199
501,16-03-2021_08:16:05,1883
502,16-03-2021_08:16:05,2416
503,16-03-2021_08:16:05,1858
504,16-03-2021_08:16:05,2257
505,16-03-2021_08:16:05,2215
506,16-03-2021_08:16:05,1881
507,16-03-2021_08:16:05,2377
508,16-03-2021_08:16:05,1725
509,16-03-2021_08:16:05,2320
510,16-03-2021_08:16:05,2895
511,16-03-2021_08:16:05,4031
512,16-03-2021_08:16:05,4075
513,16-03-2021_08:16:05,2221
514,16-03-2021_08:16:05,2234
515,16-03-2021_08:16:05,2057
516,16-03-2021_08:16:05,1723
517,16-03-2021_08:16:05,2247
518,16-03-2021_08:16:05,1665
519,16-03-2021_08:16:05,2073
520,16-03-2021_08:16:05,2035
521,16-03-2021_08:16:05,1712
522,16-03-2021_08:16:05,2279
523,16-03-2021_08:16:05,1695
524,16-03-2021_08:16:05,2119
525,16-03-2021_08:16:05,2071
526,16-03-2021_08:16:05,1759
527,16-03-2021_08:16:05,2295
528,16-03-2021_08:16:05,1733
529,16-03-2021_08:16:05,2117
530,16-03-2021_08:16:05,2064
531,16-03-2021_08:16:05,1761
532,16-03-2021_08:16:05,2338
533,16-03-2021_08:16:05,1777
534,16-03-2021_08:16:05,2218
535,16-03-2021_08:16:05,2177
536,16-03-2021_08:16:05,1946
537,16-03-2021_08:16:05,2521
538,16-03-2021_08:16:05,1938
539,16-03-2021_08:16:05,2338
540,16-03-2021_08:16:05,2211
541,16-03-2021_08:16:05,1890
542,16-03-2021_08:16:05,2384
543,16-03-2021_08:16:05,1791
544,16-03-2021_08:16:05,2187
545,16-03-2021_08:16:05,2094
546,16-03-2021_08:16:05,1793
547,16-03-2021_08:16:05,2323
548,16-03-2021_08:16:05,1738
549,16-03-2021_08:16:05,2139
550,16-03-2021_08:16:05,2063
551,16-03-2021_08:16:05,1763
552,16-03-2021_08:16:05,2283
553,16-03-2021_08:16:05,1744
554,16-03-2021_08:16:05,2131
555,16-03-2021_08:16:05,2064
556,16-03-2021_08:16:05,1777
557,16-03-2021_08:16:05,2313
558,16-03-2021_08:16:05,1730
559,16-03-2021_08:16:05,2127
560,16-03-2021_08:16:05,2058
561,16-03-2021_08:16:05,1770
562,16-03-2021_08:16:05,2308
563,16-03-2021_08:16:05,1740
564,16-03-2021_08:16:05,2147
565,16-03-2021_08:16:05,2071
566,16-03-2021_08:16:05,1788
567,16-03-2021_08:16:05,2317
568,16-03-2021_08:16:05,1749
569,16-03-2021_08:16:05,2158
570,16-03-2021_08:16:05,2081
571,16-03-2021_08:16:05,1789
572,16-03-2021_08:16:05,2325
573,16-03-2021_08:16:05,1754
574,16-03-2021_08:16:05,2147
575,16-03-2021_08:16:05,2090
576,16-03-2021_08:16:05,1791
577,16-03-2021_08:16:05,2330
578,16-03-2021_08:16:05,1757
579,16-03-2021_08:16:05,2174
580,16-03-2021_08:16:05,2087
581,16-03-2021_08:16:05,1785
582,16-03-2021_08:16:05,2362
583,16-03-2021_08:16:05,1783
584,16-03-2021_08:16:05,2211
585,16-03-2021_08:16:05,2155
586,16-03-2021_08:16:05,1837
587,16-03-2021_08:16:05,2415
588,16-03-2021_08:16:05,1834
589,16-03-2021_08:16:05,2265
590,16-03-2021_08:16:05,2170
591,16-03-2021_08:16:05,1824
592,16-03-2021_08:16:05,2403
593,16-03-2021_08:16:05,1807
594,16-03-2021_08:16:05,2229
595,16-03-2021_08:16:05,2151
596,16-03-2021_08:16:05,1755
597,16-03-2021_08:16:05,2277
598,16-03-2021_08:16:05,1930
599,16-03-2021_08:16:06,3155
600,16-03-2021_08:16:06,4095
601,16-03-2021_08:16:06,3001
602,16-03-2021_08:16:06,2679
603,16-03-2021_08:16:06,1735
604,16-03-2021_08:16:06,2130
605,16-03-2021_08:16:06,2042
606,16-03-2021_08:16:06,1696
607,16-03-2021_08:16:06,2267
608,16-03-2021_08:16:06,1643
609,16-03-2021_08:16:06,2075
610,16-03-2021_08:16:06,1995
611,16-03-2021_08:16:06,1666
612,16-03-2021_08:16:06,2250
613,16-03-2021_08:16:06,1623
614,16-03-2021_08:16:06,2044
615,16-03-2021_08:16:06,1974
616,16-03-2021_08:16:06,1633
617,16-03-2021_08:16:06,2229
618,16-03-2021_08:16:06,1618
619,16-03-2021_08:16:06,2043
620,16-03-2021_08:16:06,2011
621,16-03-2021_08:16:06,1700
622,16-03-2021_08:16:06,2299
623,16-03-2021_08:16:06,1717
624,16-03-2021_08:16:06,2189
625,16-03-2021_08:16:06,2176
626,16-03-2021_08:16:06,1877
627,16-03-2021_08:16:06,2459
628,16-03-2021_08:16:06,1840
629,16-03-2021_08:16:06,2225
630,16-03-2021_08:16:06,2147
631,16-03-2021_08:16:06,1801
632,16-03-2021_08:16:06,2373
633,16-03-2021_08:16:06,1798
634,16-03-2021_08:16:06,2187
635,16-03-2021_08:16:06,2115
636,16-03-2021_08:16:06,1803
637,16-03-2021_08:16:06,2375
638,16-03-2021_08:16:06,1789
639,16-03-2021_08:16:06,2185
640,16-03-2021_08:16:06,2131
641,16-03-2021_08:16:06,1810
642,16-03-2021_08:16:06,2366
643,16-03-2021_08:16:06,1769
644,16-03-2021_08:16:06,2169
645,16-03-2021_08:16:06,2122
646,16-03-2021_08:16:06,1791
647,16-03-2021_08:16:06,2343
648,16-03-2021_08:16:06,1766
649,16-03-2021_08:16:06,2160
650,16-03-2021_08:16:06,2107
651,16-03-2021_08:16:06,1778
652,16-03-2021_08:16:06,2350
653,16-03-2021_08:16:06,1781
654,16-03-2021_08:16:06,2153
655,16-03-2021_08:16:06,2096
656,16-03-2021_08:16:06,1777
657,16-03-2021_08:16:06,2320
658,16-03-2021_08:16:06,1747
659,16-03-2021_08:16:06,2116
660,16-03-2021_08:16:06,2062
661,16-03-2021_08:16:06,1739
662,16-03-2021_08:16:06,2265
663,16-03-2021_08:16:06,1689
664,16-03-2021_08:16:06,2059
665,16-03-2021_08:16:06,2003
666,16-03-2021_08:16:06,1690
667,16-03-2021_08:16:06,2224
668,16-03-2021_08:16:06,1653
669,16-03-2021_08:16:06,2026
670,16-03-2021_08:16:06,1983
671,16-03-2021_08:16:06,1671
672,16-03-2021_08:16:06,2224
673,16-03-2021_08:16:06,1694
674,16-03-2021_08:16:06,2084
675,16-03-2021_08:16:06,2001
676,16-03-2021_08:16:06,1715
677,16-03-2021_08:16:06,2258
678,16-03-2021_08:16:06,1718
679,16-03-2021_08:16:06,2096
680,16-03-2021_08:16:06,1995
681,16-03-2021_08:16:06,1712
682,16-03-2021_08:16:06,2246
683,16-03-2021_08:16:06,1725
684,16-03-2021_08:16:06,2097
685,16-03-2021_08:16:06,1989
686,16-03-2021_08:16:06,1599
687,16-03-2021_08:16:06,2314
688,16-03-2021_08:16:06,2332
689,16-03-2021_08:16:06,3999
690,16-03-2021_08:16:06,3426
691,16-03-2021_08:16:06,2177
692,16-03-2021_08:16:06,2238
693,16-03-2021_08:16:06,1564
694,16-03-2021_08:16:06,1904
695,16-03-2021_08:16:06,1856
696,16-03-2021_08:16:06,1584
697,16-03-2021_08:16:06,2083
698,16-03-2021_08:16:07,1549
699,16-03-2021_08:16:07,1907
700,16-03-2021_08:16:07,1871
701,16-03-2021_08:16:07,1601
702,16-03-2021_08:16:07,2087
703,16-03-2021_08:16:07,1581
704,16-03-2021_08:16:07,1936
705,16-03-2021_08:16:07,1884
706,16-03-2021_08:16:07,1585
707,16-03-2021_08:16:07,2080
708,16-03-2021_08:16:07,1570
709,16-03-2021_08:16:07,1927
710,16-03-2021_08:16:07,1877
711,16-03-2021_08:16:07,1638
712,16-03-2021_08:16:07,2150
713,16-03-2021_08:16:07,1670
714,16-03-2021_08:16:07,2068
715,16-03-2021_08:16:07,2027
716,16-03-2021_08:16:07,1774
717,16-03-2021_08:16:07,2224
718,16-03-2021_08:16:07,1677
719,16-03-2021_08:16:07,1994
720,16-03-2021_08:16:07,1901
721,16-03-2021_08:16:07,1611
722,16-03-2021_08:16:07,2091
723,16-03-2021_08:16:07,1570
724,16-03-2021_08:16:07,1925
725,16-03-2021_08:16:07,1852
726,16-03-2021_08:16:07,1600
727,16-03-2021_08:16:07,2099
728,16-03-2021_08:16:07,1600
729,16-03-2021_08:16:07,1981
730,16-03-2021_08:16:07,1917
731,16-03-2021_08:16:07,1648
732,16-03-2021_08:16:07,2149
733,16-03-2021_08:16:07,1643
734,16-03-2021_08:16:07,1999
735,16-03-2021_08:16:07,1946
736,16-03-2021_08:16:07,1687
737,16-03-2021_08:16:07,2181
738,16-03-2021_08:16:07,1668
739,16-03-2021_08:16:07,2026
740,16-03-2021_08:16:07,1968
741,16-03-2021_08:16:07,1713
742,16-03-2021_08:16:07,2219
743,16-03-2021_08:16:07,1706
744,16-03-2021_08:16:07,2093
745,16-03-2021_08:16:07,2033
746,16-03-2021_08:16:07,1797
747,16-03-2021_08:16:07,2290
748,16-03-2021_08:16:07,1789
749,16-03-2021_08:16:07,2170
750,16-03-2021_08:16:07,2106
751,16-03-2021_08:16:07,1841
752,16-03-2021_08:16:07,2332
753,16-03-2021_08:16:07,1823
754,16-03-2021_08:16:07,2203
755,16-03-2021_08:16:07,2122
756,16-03-2021_08:16:07,1872
757,16-03-2021_08:16:07,2341
758,16-03-2021_08:16:07,1802
759,16-03-2021_08:16:07,2188
760,16-03-2021_08:16:07,2099
761,16-03-2021_08:16:07,1815
762,16-03-2021_08:16:07,2295
763,16-03-2021_08:16:07,1802
764,16-03-2021_08:16:07,2192
765,16-03-2021_08:16:07,2086
766,16-03-2021_08:16:07,1811
767,16-03-2021_08:16:07,2318
768,16-03-2021_08:16:07,1792
769,16-03-2021_08:16:07,2175
770,16-03-2021_08:16:07,2081
771,16-03-2021_08:16:07,1680
772,16-03-2021_08:16:07,2229
773,16-03-2021_08:16:07,2102
774,16-03-2021_08:16:07,3562
775,16-03-2021_08:16:07,4095
776,16-03-2021_08:16:07,2547
777,16-03-2021_08:16:07,2412
778,16-03-2021_08:16:07,1664
779,16-03-2021_08:16:07,2023
780,16-03-2021_08:16:07,1913
781,16-03-2021_08:16:07,1646
782,16-03-2021_08:16:07,2146
783,16-03-2021_08:16:07,1601
784,16-03-2021_08:16:07,2003
785,16-03-2021_08:16:07,1927
786,16-03-2021_08:16:07,1680
787,16-03-2021_08:16:07,2173
788,16-03-2021_08:16:07,1653
789,16-03-2021_08:16:07,2045
790,16-03-2021_08:16:07,1949
791,16-03-2021_08:16:07,1722
792,16-03-2021_08:16:07,2211
793,16-03-2021_08:16:07,1669
794,16-03-2021_08:16:07,2074
795,16-03-2021_08:16:07,1987
796,16-03-2021_08:16:07,1750
797,16-03-2021_08:16:07,2268
798,16-03-2021_08:16:07,1776
799,16-03-2021_08:16:08,2223
800,16-03-2021_08:16:08,2175
801,16-03-2021_08:16:08,1973
802,16-03-2021_08:16:08,2432
803,16-03-2021_08:16:08,1840
804,16-03-2021_08:16:08,2230
805,16-03-2021_08:16:08,2096
806,16-03-2021_08:16:08,1840
807,16-03-2021_08:16:08,2320
808,16-03-2021_08:16:08,1797
809,16-03-2021_08:16:08,2211
810,16-03-2021_08:16:08,2075
811,16-03-2021_08:16:08,1842
812,16-03-2021_08:16:08,2323
813,16-03-2021_08:16:08,1771
814,16-03-2021_08:16:08,2181
815,16-03-2021_08:16:08,2045
816,16-03-2021_08:16:08,1802
817,16-03-2021_08:16:08,2308
818,16-03-2021_08:16:08,1775
819,16-03-2021_08:16:08,2243
820,16-03-2021_08:16:08,2113
821,16-03-2021_08:16:08,1902
822,16-03-2021_08:16:08,2409
823,16-03-2021_08:16:08,1853
824,16-03-2021_08:16:08,2326
825,16-03-2021_08:16:08,2166
826,16-03-2021_08:16:08,1936
827,16-03-2021_08:16:08,2430
828,16-03-2021_08:16:08,1839
829,16-03-2021_08:16:08,2305
830,16-03-2021_08:16:08,2160
831,16-03-2021_08:16:08,1935
832,16-03-2021_08:16:08,2437
833,16-03-2021_08:16:08,1831
834,16-03-2021_08:16:08,2349
835,16-03-2021_08:16:08,2161
836,16-03-2021_08:16:08,1928
837,16-03-2021_08:16:08,2454
838,16-03-2021_08:16:08,1827
839,16-03-2021_08:16:08,2351
840,16-03-2021_08:16:08,2147
841,16-03-2021_08:16:08,1901
842,16-03-2021_08:16:08,2384
843,16-03-2021_08:16:08,1758
844,16-03-2021_08:16:08,2298
845,16-03-2021_08:16:08,2054
846,16-03-2021_08:16:08,1854
847,16-03-2021_08:16:08,2351
848,16-03-2021_08:16:08,1744
849,16-03-2021_08:16:08,2293
850,16-03-2021_08:16:08,2063
851,16-03-2021_08:16:08,1890
852,16-03-2021_08:16:08,2427
853,16-03-2021_08:16:08,1809
854,16-03-2021_08:16:08,2368
855,16-03-2021_08:16:08,2124
856,16-03-2021_08:16:08,1955
857,16-03-2021_08:16:08,2469
858,16-03-2021_08:16:08,1801
859,16-03-2021_08:16:08,2354
860,16-03-2021_08:16:08,2021
861,16-03-2021_08:16:08,1856
862,16-03-2021_08:16:08,2631
863,16-03-2021_08:16:08,2724
864,16-03-2021_08:16:08,4095
865,16-03-2021_08:16:08,3315
866,16-03-2021_08:16:08,2181
867,16-03-2021_08:16:08,2361
868,16-03-2021_08:16:08,1681
869,16-03-2021_08:16:08,2218
870,16-03-2021_08:16:08,1923
871,16-03-2021_08:16:08,1782
872,16-03-2021_08:16:08,2256
873,16-03-2021_08:16:08,1623
874,16-03-2021_08:16:08,2176
875,16-03-2021_08:16:08,1905
876,16-03-2021_08:16:08,1739
877,16-03-2021_08:16:08,2238
878,16-03-2021_08:16:08,1586
879,16-03-2021_08:16:08,2157
880,16-03-2021_08:16:08,1866
881,16-03-2021_08:16:08,1728
882,16-03-2021_08:16:08,2202
883,16-03-2021_08:16:08,1555
884,16-03-2021_08:16:08,2142
885,16-03-2021_08:16:08,1872
886,16-03-2021_08:16:08,1772
887,16-03-2021_08:16:08,2259
888,16-03-2021_08:16:08,1678
889,16-03-2021_08:16:08,2304
890,16-03-2021_08:16:08,2027
891,16-03-2021_08:16:08,1859
892,16-03-2021_08:16:08,2323
893,16-03-2021_08:16:08,1660
894,16-03-2021_08:16:08,2221
895,16-03-2021_08:16:08,1895
896,16-03-2021_08:16:08,1770
897,16-03-2021_08:16:08,2241
898,16-03-2021_08:16:09,1600
899,16-03-2021_08:16:09,2187
900,16-03-2021_08:16:09,1899
901,16-03-2021_08:16:09,1771
902,16-03-2021_08:16:09,2258
903,16-03-2021_08:16:09,1626
904,16-03-2021_08:16:09,2203
905,16-03-2021_08:16:09,1934
906,16-03-2021_08:16:09,1832
907,16-03-2021_08:16:09,2300
908,16-03-2021_08:16:09,1666
909,16-03-2021_08:16:09,2244
910,16-03-2021_08:16:09,1968
911,16-03-2021_08:16:09,1850
912,16-03-2021_08:16:09,2318
913,16-03-2021_08:16:09,1691
914,16-03-2021_08:16:09,2257
915,16-03-2021_08:16:09,1967
916,16-03-2021_08:16:09,1862
917,16-03-2021_08:16:09,2334
918,16-03-2021_08:16:09,1731
919,16-03-2021_08:16:09,2292
920,16-03-2021_08:16:09,1991
921,16-03-2021_08:16:09,1888
922,16-03-2021_08:16:09,2329
923,16-03-2021_08:16:09,1701
924,16-03-2021_08:16:09,2263
925,16-03-2021_08:16:09,1979
926,16-03-2021_08:16:09,1862
927,16-03-2021_08:16:09,2302
928,16-03-2021_08:16:09,1701
929,16-03-2021_08:16:09,2257
930,16-03-2021_08:16:09,1966
931,16-03-2021_08:16:09,1878
932,16-03-2021_08:16:09,2310
933,16-03-2021_08:16:09,1706
934,16-03-2021_08:16:09,2234
935,16-03-2021_08:16:09,1953
936,16-03-2021_08:16:09,1855
937,16-03-2021_08:16:09,2286
938,16-03-2021_08:16:09,1691
939,16-03-2021_08:16:09,2241
940,16-03-2021_08:16:09,1946
941,16-03-2021_08:16:09,1841
942,16-03-2021_08:16:09,2314
943,16-03-2021_08:16:09,1709
944,16-03-2021_08:16:09,2261
945,16-03-2021_08:16:09,1931
946,16-03-2021_08:16:09,1839
947,16-03-2021_08:16:09,2270
948,16-03-2021_08:16:09,1680
949,16-03-2021_08:16:09,2231
950,16-03-2021_08:16:09,1804
951,16-03-2021_08:16:09,1744
952,16-03-2021_08:16:09,2518
953,16-03-2021_08:16:09,2827
954,16-03-2021_08:16:09,4095
955,16-03-2021_08:16:09,2802
956,16-03-2021_08:16:09,2032
957,16-03-2021_08:16:09,2199
958,16-03-2021_08:16:09,1565
959,16-03-2021_08:16:09,2093
960,16-03-2021_08:16:09,1764
961,16-03-2021_08:16:09,1664
962,16-03-2021_08:16:09,2112
963,16-03-2021_08:16:09,1499
964,16-03-2021_08:16:09,2092
965,16-03-2021_08:16:09,1792
966,16-03-2021_08:16:09,1689
967,16-03-2021_08:16:09,2146
968,16-03-2021_08:16:09,1525
969,16-03-2021_08:16:09,2097
970,16-03-2021_08:16:09,1777
971,16-03-2021_08:16:09,1675
972,16-03-2021_08:16:09,2126
973,16-03-2021_08:16:09,1493
974,16-03-2021_08:16:09,2085
975,16-03-2021_08:16:09,1787
976,16-03-2021_08:16:09,1712
977,16-03-2021_08:16:09,2192
978,16-03-2021_08:16:09,1618
979,16-03-2021_08:16:09,2256
980,16-03-2021_08:16:09,1968
981,16-03-2021_08:16:09,1870
982,16-03-2021_08:16:09,2303
983,16-03-2021_08:16:09,1647
984,16-03-2021_08:16:09,2191
985,16-03-2021_08:16:09,1855
986,16-03-2021_08:16:09,1746
987,16-03-2021_08:16:09,2185
988,16-03-2021_08:16:09,1563
989,16-03-2021_08:16:09,2150
990,16-03-2021_08:16:09,1840
991,16-03-2021_08:16:09,1739
992,16-03-2021_08:16:09,2197
993,16-03-2021_08:16:09,1583
994,16-03-2021_08:16:09,2176
995,16-03-2021_08:16:09,1853
996,16-03-2021_08:16:09,1772
997,16-03-2021_08:16:09,2223
998,16-03-2021_08:16:09,1590
999,16-03-2021_08:16:10,2177
1000,16-03-2021_08:16:10,1871
1001,16-03-2021_08:16:10,1786
1002,16-03-2021_08:16:10,2225
1003,16-03-2021_08:16:10,1584
1004,16-03-2021_08:16:10,2209
1005,16-03-2021_08:16:10,1882
1006,16-03-2021_08:16:10,1796
1007,16-03-2021_08:16:10,2233
1008,16-03-2021_08:16:10,1609
1009,16-03-2021_08:16:10,2220
1010,16-03-2021_08:16:10,1898
1011,16-03-2021_08:16:10,1819
1012,16-03-2021_08:16:10,2277
1013,16-03-2021_08:16:10,1626
1014,16-03-2021_08:16:10,2252
1015,16-03-2021_08:16:10,1915
1016,16-03-2021_08:16:10,1831
1017,16-03-2021_08:16:10,2288
1018,16-03-2021_08:16:10,1654
1019,16-03-2021_08:16:10,2256
1020,16-03-2021_08:16:10,1898
1021,16-03-2021_08:16:10,1834
1022,16-03-2021_08:16:10,2271
1023,16-03-2021_08:16:10,1635
1024,16-03-2021_08:16:10,2247
1025,16-03-2021_08:16:10,1913
1026,16-03-2021_08:16:10,1841
1027,16-03-2021_08:16:10,2274
1028,16-03-2021_08:16:10,1639
1029,16-03-2021_08:16:10,2255
1030,16-03-2021_08:16:10,1903
1031,16-03-2021_08:16:10,1827
1032,16-03-2021_08:16:10,2289
1033,16-03-2021_08:16:10,1670
1034,16-03-2021_08:16:10,2230
1035,16-03-2021_08:16:10,1873
1036,16-03-2021_08:16:10,1815
1037,16-03-2021_08:16:10,2266
1038,16-03-2021_08:16:10,1648
1039,16-03-2021_08:16:10,2253
1040,16-03-2021_08:16:10,1808
1041,16-03-2021_08:16:10,1731
1042,16-03-2021_08:16:10,2449
1043,16-03-2021_08:16:10,2597
1044,16-03-2021_08:16:10,4095
1045,16-03-2021_08:16:10,2946
1046,16-03-2021_08:16:10,2128
1047,16-03-2021_08:16:10,2210
1048,16-03-2021_08:16:10,1520
1049,16-03-2021_08:16:10,2111
1050,16-03-2021_08:16:10,1758
1051,16-03-2021_08:16:10,1680
1052,16-03-2021_08:16:10,2111
1053,16-03-2021_08:16:10,1486
1054,16-03-2021_08:16:10,2111
1055,16-03-2021_08:16:10,1765
1056,16-03-2021_08:16:10,1715
1057,16-03-2021_08:16:10,2144
1058,16-03-2021_08:16:10,1509
1059,16-03-2021_08:16:10,2118
1060,16-03-2021_08:16:10,1786
1061,16-03-2021_08:16:10,1729
1062,16-03-2021_08:16:10,2149
1063,16-03-2021_08:16:10,1533
1064,16-03-2021_08:16:10,2173
1065,16-03-2021_08:16:10,1833
1066,16-03-2021_08:16:10,1802
1067,16-03-2021_08:16:10,2224
1068,16-03-2021_08:16:10,1674
1069,16-03-2021_08:16:10,2314
1070,16-03-2021_08:16:10,1993
1071,16-03-2021_08:16:10,1936
1072,16-03-2021_08:16:10,2342
1073,16-03-2021_08:16:10,1669
1074,16-03-2021_08:16:10,2235
1075,16-03-2021_08:16:10,1871
1076,16-03-2021_08:16:10,1811
1077,16-03-2021_08:16:10,2228
1078,16-03-2021_08:16:10,1602
1079,16-03-2021_08:16:10,2165
1080,16-03-2021_08:16:10,1856
1081,16-03-2021_08:16:10,1795
1082,16-03-2021_08:16:10,2225
1083,16-03-2021_08:16:10,1614
1084,16-03-2021_08:16:10,2224
1085,16-03-2021_08:16:10,1882
1086,16-03-2021_08:16:10,1818
1087,16-03-2021_08:16:10,2226
1088,16-03-2021_08:16:10,1631
1089,16-03-2021_08:16:10,2239
1090,16-03-2021_08:16:10,1903
1091,16-03-2021_08:16:10,1849
1092,16-03-2021_08:16:10,2243
1093,16-03-2021_08:16:10,1632
1094,16-03-2021_08:16:10,2240
1095,16-03-2021_08:16:10,1894
1096,16-03-2021_08:16:10,1843
1097,16-03-2021_08:16:10,2263
1098,16-03-2021_08:16:11,1688
1099,16-03-2021_08:16:11,2237
1100,16-03-2021_08:16:11,1875
1101,16-03-2021_08:16:11,1854
1102,16-03-2021_08:16:11,2278
1103,16-03-2021_08:16:11,1648
1104,16-03-2021_08:16:11,2267
1105,16-03-2021_08:16:11,1920
1106,16-03-2021_08:16:11,1893
1107,16-03-2021_08:16:11,2320
1108,16-03-2021_08:16:11,1712
1109,16-03-2021_08:16:11,2304
1110,16-03-2021_08:16:11,1986
1111,16-03-2021_08:16:11,1950
1112,16-03-2021_08:16:11,2367
1113,16-03-2021_08:16:11,1749
1114,16-03-2021_08:16:11,2357
1115,16-03-2021_08:16:11,2054
1116,16-03-2021_08:16:11,2000
1117,16-03-2021_08:16:11,2428
1118,16-03-2021_08:16:11,1791
1119,16-03-2021_08:16:11,2419
1120,16-03-2021_08:16:11,2081
1121,16-03-2021_08:16:11,2031
1122,16-03-2021_08:16:11,2417
1123,16-03-2021_08:16:11,1764
1124,16-03-2021_08:16:11,2391
1125,16-03-2021_08:16:11,2034
1126,16-03-2021_08:16:11,1983
1127,16-03-2021_08:16:11,2367
1128,16-03-2021_08:16:11,1649
1129,16-03-2021_08:16:11,2265
1130,16-03-2021_08:16:11,2231
1131,16-03-2021_08:16:11,3052
1132,16-03-2021_08:16:11,4095
1133,16-03-2021_08:16:11,2818
1134,16-03-2021_08:16:11,2593
1135,16-03-2021_08:16:11,1919
1136,16-03-2021_08:16:11,1851
1137,16-03-2021_08:16:11,2214
1138,16-03-2021_08:16:11,1594
1139,16-03-2021_08:16:11,2191
1140,16-03-2021_08:16:11,1831
1141,16-03-2021_08:16:11,1808
1142,16-03-2021_08:16:11,2203
1143,16-03-2021_08:16:11,1604
1144,16-03-2021_08:16:11,2226
1145,16-03-2021_08:16:11,1842
1146,16-03-2021_08:16:11,1825
1147,16-03-2021_08:16:11,2207
1148,16-03-2021_08:16:11,1577
1149,16-03-2021_08:16:11,2191
1150,16-03-2021_08:16:11,1813
1151,16-03-2021_08:16:11,1789
1152,16-03-2021_08:16:11,2214
1153,16-03-2021_08:16:11,1619
1154,16-03-2021_08:16:11,2269
1155,16-03-2021_08:16:11,1925
1156,16-03-2021_08:16:11,1931
1157,16-03-2021_08:16:11,2358
1158,16-03-2021_08:16:11,1787
1159,16-03-2021_08:16:11,2416
1160,16-03-2021_08:16:11,2013
1161,16-03-2021_08:16:11,1963
1162,16-03-2021_08:16:11,2316
1163,16-03-2021_08:16:11,1687
1164,16-03-2021_08:16:11,2301
1165,16-03-2021_08:16:11,1915
1166,16-03-2021_08:16:11,1891
1167,16-03-2021_08:16:11,2269
1168,16-03-2021_08:16:11,1648
1169,16-03-2021_08:16:11,2289
1170,16-03-2021_08:16:11,1907
1171,16-03-2021_08:16:11,1902
1172,16-03-2021_08:16:11,2284
1173,16-03-2021_08:16:11,1681
1174,16-03-2021_08:16:11,2321
1175,16-03-2021_08:16:11,1952
1176,16-03-2021_08:16:11,1939
1177,16-03-2021_08:16:11,2335
1178,16-03-2021_08:16:11,1725
1179,16-03-2021_08:16:11,2353
1180,16-03-2021_08:16:11,1957
1181,16-03-2021_08:16:11,1938
1182,16-03-2021_08:16:11,2333
1183,16-03-2021_08:16:11,1728
1184,16-03-2021_08:16:11,2334
1185,16-03-2021_08:16:11,1957
1186,16-03-2021_08:16:11,1951
1187,16-03-2021_08:16:11,2325
1188,16-03-2021_08:16:11,1737
1189,16-03-2021_08:16:11,2342
1190,16-03-2021_08:16:11,1974
1191,16-03-2021_08:16:11,1971
1192,16-03-2021_08:16:11,2347
1193,16-03-2021_08:16:11,1757
1194,16-03-2021_08:16:11,2352
1195,16-03-2021_08:16:11,1985
1196,16-03-2021_08:16:11,1970
1197,16-03-2021_08:16:11,2344
1198,16-03-2021_08:16:11,1744
1199,16-03-2021_08:16:12,2366
1200,16-03-2021_08:16:12,1975
1201,16-03-2021_08:16:12,1956
1202,16-03-2021_08:16:12,2343
1203,16-03-2021_08:16:12,1737
1204,16-03-2021_08:16:12,2353
1205,16-03-2021_08:16:12,1936
1206,16-03-2021_08:16:12,1951
1207,16-03-2021_08:16:12,2363
1208,16-03-2021_08:16:12,1793
1209,16-03-2021_08:16:12,2387
1210,16-03-2021_08:16:12,1975
1211,16-03-2021_08:16:12,1985
1212,16-03-2021_08:16:12,2368
1213,16-03-2021_08:16:12,1747
1214,16-03-2021_08:16:12,2371
1215,16-03-2021_08:16:12,1904
1216,16-03-2021_08:16:12,1827
1217,16-03-2021_08:16:12,2416
1218,16-03-2021_08:16:12,2489
1219,16-03-2021_08:16:12,4095
1220,16-03-2021_08:16:12,3282
1221,16-03-2021_08:16:12,2375
1222,16-03-2021_08:16:12,2351
1223,16-03-2021_08:16:12,1689
1224,16-03-2021_08:16:12,2306
1225,16-03-2021_08:16:12,1895
1226,16-03-2021_08:16:12,1914
1227,16-03-2021_08:16:12,2276
1228,16-03-2021_08:16:12,1668
1229,16-03-2021_08:16:12,2304
1230,16-03-2021_08:16:12,1890
1231,16-03-2021_08:16:12,1887
1232,16-03-2021_08:16:12,2277
1233,16-03-2021_08:16:12,1633
1234,16-03-2021_08:16:12,2268
1235,16-03-2021_08:16:12,1859
1236,16-03-2021_08:16:12,1829
1237,16-03-2021_08:16:12,2226
1238,16-03-2021_08:16:12,1587
1239,16-03-2021_08:16:12,2263
1240,16-03-2021_08:16:12,1875
1241,16-03-2021_08:16:12,1887
1242,16-03-2021_08:16:12,2306
1243,16-03-2021_08:16:12,1701
1244,16-03-2021_08:16:12,2372
1245,16-03-2021_08:16:12,2023
1246,16-03-2021_08:16:12,2011
1247,16-03-2021_08:16:12,2368
1248,16-03-2021_08:16:12,1691
1249,16-03-2021_08:16:12,2298
1250,16-03-2021_08:16:12,1879
1251,16-03-2021_08:16:12,1845
1252,16-03-2021_08:16:12,2238
1253,16-03-2021_08:16:12,1614
1254,16-03-2021_08:16:12,2239
1255,16-03-2021_08:16:12,1870
1256,16-03-2021_08:16:12,1871
1257,16-03-2021_08:16:12,2293
1258,16-03-2021_08:16:12,1627
1259,16-03-2021_08:16:12,2230
1260,16-03-2021_08:16:12,1895
1261,16-03-2021_08:16:12,1886
1262,16-03-2021_08:16:12,2274
1263,16-03-2021_08:16:12,1666
1264,16-03-2021_08:16:12,2269
1265,16-03-2021_08:16:12,1915
1266,16-03-2021_08:16:12,1914
1267,16-03-2021_08:16:12,2310
1268,16-03-2021_08:16:12,1744
1269,16-03-2021_08:16:12,2347
1270,16-03-2021_08:16:12,2009
1271,16-03-2021_08:16:12,1984
1272,16-03-2021_08:16:12,2354
1273,16-03-2021_08:16:12,1787
1274,16-03-2021_08:16:12,2349
1275,16-03-2021_08:16:12,1991
1276,16-03-2021_08:16:12,1965
1277,16-03-2021_08:16:12,2324
1278,16-03-2021_08:16:12,1735
1279,16-03-2021_08:16:12,2321
1280,16-03-2021_08:16:12,1986
1281,16-03-2021_08:16:12,1957
1282,16-03-2021_08:16:12,2331
1283,16-03-2021_08:16:12,1774
1284,16-03-2021_08:16:12,2335
1285,16-03-2021_08:16:12,1999
1286,16-03-2021_08:16:12,1974
1287,16-03-2021_08:16:12,2331
1288,16-03-2021_08:16:12,1776
1289,16-03-2021_08:16:12,2318
1290,16-03-2021_08:16:12,1943
1291,16-03-2021_08:16:12,1903
1292,16-03-2021_08:16:12,2253
1293,16-03-2021_08:16:12,1707
1294,16-03-2021_08:16:12,2258
1295,16-03-2021_08:16:12,1905
1296,16-03-2021_08:16:12,1851
1297,16-03-2021_08:16:12,2214
1298,16-03-2021_08:16:13,1648
1299,16-03-2021_08:16:13,2193
1300,16-03-2021_08:16:13,1859
1301,16-03-2021_08:16:13,1744
1302,16-03-2021_08:16:13,2091
1303,16-03-2021_08:16:13,1865
1304,16-03-2021_08:16:13,3260
1305,16-03-2021_08:16:13,3824
1306,16-03-2021_08:16:13,2682
1307,16-03-2021_08:16:13,2377
1308,16-03-2021_08:16:13,1531
1309,16-03-2021_08:16:13,2057
1310,16-03-2021_08:16:13,1688
1311,16-03-2021_08:16:13,1679
1312,16-03-2021_08:16:13,2006
1313,16-03-2021_08:16:13,1465
1314,16-03-2021_08:16:13,2043
1315,16-03-2021_08:16:13,1709
1316,16-03-2021_08:16:13,1692
1317,16-03-2021_08:16:13,2025
1318,16-03-2021_08:16:13,1495
1319,16-03-2021_08:16:13,2066
1320,16-03-2021_08:16:13,1727
1321,16-03-2021_08:16:13,1712
1322,16-03-2021_08:16:13,2041
1323,16-03-2021_08:16:13,1497
1324,16-03-2021_08:16:13,2065
1325,16-03-2021_08:16:13,1716
1326,16-03-2021_08:16:13,1719
1327,16-03-2021_08:16:13,2089
1328,16-03-2021_08:16:13,1562
1329,16-03-2021_08:16:13,2154
1330,16-03-2021_08:16:13,1857
1331,16-03-2021_08:16:13,1877
1332,16-03-2021_08:16:13,2224
1333,16-03-2021_08:16:13,1642
1334,16-03-2021_08:16:13,2191
1335,16-03-2021_08:16:13,1822
1336,16-03-2021_08:16:13,1799
1337,16-03-2021_08:16:13,2155
1338,16-03-2021_08:16:13,1584
1339,16-03-2021_08:16:13,2163
1340,16-03-2021_08:16:13,1789
1341,16-03-2021_08:16:13,1803
1342,16-03-2021_08:16:13,2170
1343,16-03-2021_08:16:13,1599
1344,16-03-2021_08:16:13,2218
1345,16-03-2021_08:16:13,1856
1346,16-03-2021_08:16:13,1867
1347,16-03-2021_08:16:13,2240
1348,16-03-2021_08:16:13,1633
1349,16-03-2021_08:16:13,2242
1350,16-03-2021_08:16:13,1867
1351,16-03-2021_08:16:13,1872
1352,16-03-2021_08:16:13,2240
1353,16-03-2021_08:16:13,1643
1354,16-03-2021_08:16:13,2267
1355,16-03-2021_08:16:13,1878
1356,16-03-2021_08:16:13,1886
1357,16-03-2021_08:16:13,2240
1358,16-03-2021_08:16:13,1627
1359,16-03-2021_08:16:13,2251
1360,16-03-2021_08:16:13,1878
1361,16-03-2021_08:16:13,1890
1362,16-03-2021_08:16:13,2287
1363,16-03-2021_08:16:13,1658
1364,16-03-2021_08:16:13,2294
1365,16-03-2021_08:16:13,1910
1366,16-03-2021_08:16:13,1889
1367,16-03-2021_08:16:13,2278
1368,16-03-2021_08:16:13,1648
1369,16-03-2021_08:16:13,2310
1370,16-03-2021_08:16:13,1893
1371,16-03-2021_08:16:13,1896
1372,16-03-2021_08:16:13,2293
1373,16-03-2021_08:16:13,1619
1374,16-03-2021_08:16:13,2299
1375,16-03-2021_08:16:13,1907
1376,16-03-2021_08:16:13,1892
1377,16-03-2021_08:16:13,2266
1378,16-03-2021_08:16:13,1619
1379,16-03-2021_08:16:13,2311
1380,16-03-2021_08:16:13,1889
1381,16-03-2021_08:16:13,1851
1382,16-03-2021_08:16:13,2223
1383,16-03-2021_08:16:13,1475
1384,16-03-2021_08:16:13,2337
1385,16-03-2021_08:16:13,2480
1386,16-03-2021_08:16:13,3659
1387,16-03-2021_08:16:13,4095
1388,16-03-2021_08:16:13,2192
1389,16-03-2021_08:16:13,2384
1390,16-03-2021_08:16:13,1815
1391,16-03-2021_08:16:13,1763
1392,16-03-2021_08:16:13,2105
1393,16-03-2021_08:16:13,1469
1394,16-03-2021_08:16:13,2101
1395,16-03-2021_08:16:13,1734
1396,16-03-2021_08:16:13,1723
1397,16-03-2021_08:16:13,2120
1398,16-03-2021_08:16:13,1520
1399,16-03-2021_08:16:14,2154
1400,16-03-2021_08:16:14,1774
1401,16-03-2021_08:16:14,1734
1402,16-03-2021_08:16:14,2118
1403,16-03-2021_08:16:14,1513
1404,16-03-2021_08:16:14,2122
1405,16-03-2021_08:16:14,1743
1406,16-03-2021_08:16:14,1697
1407,16-03-2021_08:16:14,2105
1408,16-03-2021_08:16:14,1530
1409,16-03-2021_08:16:14,2171
1410,16-03-2021_08:16:14,1855
1411,16-03-2021_08:16:14,1854
1412,16-03-2021_08:16:14,2279
1413,16-03-2021_08:16:14,1680
1414,16-03-2021_08:16:14,2262
1415,16-03-2021_08:16:14,1883
1416,16-03-2021_08:16:14,1808
1417,16-03-2021_08:16:14,2193
1418,16-03-2021_08:16:14,1590
1419,16-03-2021_08:16:14,2190
1420,16-03-2021_08:16:14,1832
1421,16-03-2021_08:16:14,1786
1422,16-03-2021_08:16:14,2190
1423,16-03-2021_08:16:14,1568
1424,16-03-2021_08:16:14,2192
1425,16-03-2021_08:16:14,1847
1426,16-03-2021_08:16:14,1803
1427,16-03-2021_08:16:14,2205
1428,16-03-2021_08:16:14,1600
1429,16-03-2021_08:16:14,2210
1430,16-03-2021_08:16:14,1865
1431,16-03-2021_08:16:14,1834
1432,16-03-2021_08:16:14,2233
1433,16-03-2021_08:16:14,1642
1434,16-03-2021_08:16:14,2243
1435,16-03-2021_08:16:14,1902
1436,16-03-2021_08:16:14,1866
1437,16-03-2021_08:16:14,2282
1438,16-03-2021_08:16:14,1690
1439,16-03-2021_08:16:14,2303
1440,16-03-2021_08:16:14,1949
1441,16-03-2021_08:16:14,1915
1442,16-03-2021_08:16:14,2323
1443,16-03-2021_08:16:14,1718
1444,16-03-2021_08:16:14,2316
1445,16-03-2021_08:16:14,1968
1446,16-03-2021_08:16:14,1919
1447,16-03-2021_08:16:14,2308
1448,16-03-2021_08:16:14,1709
1449,16-03-2021_08:16:14,2321
1450,16-03-2021_08:16:14,1982
1451,16-03-2021_08:16:14,1915
1452,16-03-2021_08:16:14,2320
1453,16-03-2021_08:16:14,1744
1454,16-03-2021_08:16:14,2354
1455,16-03-2021_08:16:14,1989
1456,16-03-2021_08:16:14,1935
1457,16-03-2021_08:16:14,2321
1458,16-03-2021_08:16:14,1719
1459,16-03-2021_08:16:14,2315
1460,16-03-2021_08:16:14,1947
1461,16-03-2021_08:16:14,1792
1462,16-03-2021_08:16:14,2161
1463,16-03-2021_08:16:14,1861
1464,16-03-2021_08:16:14,3355
1465,16-03-2021_08:16:14,4095
1466,16-03-2021_08:16:14,3014
1467,16-03-2021_08:16:14,2517
1468,16-03-2021_08:16:14,1600
1469,16-03-2021_08:16:14,2160
1470,16-03-2021_08:16:14,1789
1471,16-03-2021_08:16:14,1719
1472,16-03-2021_08:16:14,2109
1473,16-03-2021_08:16:14,1493
1474,16-03-2021_08:16:14,2107
1475,16-03-2021_08:16:14,1769
1476,16-03-2021_08:16:14,1732
1477,16-03-2021_08:16:14,2137
1478,16-03-2021_08:16:14,1545
1479,16-03-2021_08:16:14,2147
1480,16-03-2021_08:16:14,1798
1481,16-03-2021_08:16:14,1769
1482,16-03-2021_08:16:14,2149
1483,16-03-2021_08:16:14,1557
1484,16-03-2021_08:16:14,2154
1485,16-03-2021_08:16:14,1808
1486,16-03-2021_08:16:14,1801
1487,16-03-2021_08:16:14,2237
1488,16-03-2021_08:16:14,1667
1489,16-03-2021_08:16:14,2322
1490,16-03-2021_08:16:14,2003
1491,16-03-2021_08:16:14,1995
1492,16-03-2021_08:16:14,2381
1493,16-03-2021_08:16:14,1750
1494,16-03-2021_08:16:14,2336
1495,16-03-2021_08:16:14,1971
1496,16-03-2021_08:16:14,1916
1497,16-03-2021_08:16:14,2316
1498,16-03-2021_08:16:15,1695
1499,16-03-2021_08:16:15,2305
1500,16-03-2021_08:16:15,1936
1501,16-03-2021_08:16:15,1917
1502,16-03-2021_08:16:15,2305
1503,16-03-2021_08:16:15,1696
1504,16-03-2021_08:16:15,2311
1505,16-03-2021_08:16:15,1936
1506,16-03-2021_08:16:15,1906
1507,16-03-2021_08:16:15,2294
1508,16-03-2021_08:16:15,1701
1509,16-03-2021_08:16:15,2301
1510,16-03-2021_08:16:15,1938
1511,16-03-2021_08:16:15,1919
1512,16-03-2021_08:16:15,2301
1513,16-03-2021_08:16:15,1726
1514,16-03-2021_08:16:15,2335
1515,16-03-2021_08:16:15,1974
1516,16-03-2021_08:16:15,1955
1517,16-03-2021_08:16:15,2319
1518,16-03-2021_08:16:15,1753
1519,16-03-2021_08:16:15,2337
1520,16-03-2021_08:16:15,1985
1521,16-03-2021_08:16:15,1950
1522,16-03-2021_08:16:15,2332
1523,16-03-2021_08:16:15,1750
1524,16-03-2021_08:16:15,2341
1525,16-03-2021_08:16:15,1985
1526,16-03-2021_08:16:15,1959
1527,16-03-2021_08:16:15,2321
1528,16-03-2021_08:16:15,1749
1529,16-03-2021_08:16:15,2355
1530,16-03-2021_08:16:15,1990
1531,16-03-2021_08:16:15,1951
1532,16-03-2021_08:16:15,2336
1533,16-03-2021_08:16:15,1785
1534,16-03-2021_08:16:15,2387
1535,16-03-2021_08:16:15,2017
1536,16-03-2021_08:16:15,1979
1537,16-03-2021_08:16:15,2370
1538,16-03-2021_08:16:15,1781
1539,16-03-2021_08:16:15,2385
1540,16-03-2021_08:16:15,2014
1541,16-03-2021_08:16:15,1856
1542,16-03-2021_08:16:15,2285
1543,16-03-2021_08:16:15,2042
1544,16-03-2021_08:16:15,3825
1545,16-03-2021_08:16:15,4095
1546,16-03-2021_08:16:15,2743
1547,16-03-2021_08:16:15,2480
1548,16-03-2021_08:16:15,1645
1549,16-03-2021_08:16:15,2237
1550,16-03-2021_08:16:15,1829
1551,16-03-2021_08:16:15,1777
1552,16-03-2021_08:16:15,2177
1553,16-03-2021_08:16:15,1535
1554,16-03-2021_08:16:15,2183
1555,16-03-2021_08:16:15,1802
1556,16-03-2021_08:16:15,1783
1557,16-03-2021_08:16:15,2203
1558,16-03-2021_08:16:15,1555
1559,16-03-2021_08:16:15,2200
1560,16-03-2021_08:16:15,1821
1561,16-03-2021_08:16:15,1805
1562,16-03-2021_08:16:15,2217
1563,16-03-2021_08:16:15,1545
1564,16-03-2021_08:16:15,2206
1565,16-03-2021_08:16:15,1808
1566,16-03-2021_08:16:15,1808
1567,16-03-2021_08:16:15,2256
1568,16-03-2021_08:16:15,1635
1569,16-03-2021_08:16:15,2315
1570,16-03-2021_08:16:15,1954
1571,16-03-2021_08:16:15,1962
1572,16-03-2021_08:16:15,2364
1573,16-03-2021_08:16:15,1675
1574,16-03-2021_08:16:15,2303
1575,16-03-2021_08:16:15,1879
1576,16-03-2021_08:16:15,1857
1577,16-03-2021_08:16:15,2272
1578,16-03-2021_08:16:15,1619
1579,16-03-2021_08:16:15,2271
1580,16-03-2021_08:16:15,1872
1581,16-03-2021_08:16:15,1847
1582,16-03-2021_08:16:15,2256
1583,16-03-2021_08:16:15,1603
1584,16-03-2021_08:16:15,2261
1585,16-03-2021_08:16:15,1868
1586,16-03-2021_08:16:15,1840
1587,16-03-2021_08:16:15,2241
1588,16-03-2021_08:16:15,1612
1589,16-03-2021_08:16:15,2255
1590,16-03-2021_08:16:15,1849
1591,16-03-2021_08:16:15,1837
1592,16-03-2021_08:16:15,2234
1593,16-03-2021_08:16:15,1614
1594,16-03-2021_08:16:15,2256
1595,16-03-2021_08:16:15,1884
1596,16-03-2021_08:16:15,1869
1597,16-03-2021_08:16:15,2254
1598,16-03-2021_08:16:15,1638
1599,16-03-2021_08:16:16,2278
1600,16-03-2021_08:16:16,1904
1601,16-03-2021_08:16:16,1890
1602,16-03-2021_08:16:16,2273
1603,16-03-2021_08:16:16,1657
1604,16-03-2021_08:16:16,2307
1605,16-03-2021_08:16:16,1917
1606,16-03-2021_08:16:16,1905
1607,16-03-2021_08:16:16,2293
1608,16-03-2021_08:16:16,1675
1609,16-03-2021_08:16:16,2311
1610,16-03-2021_08:16:16,1906
1611,16-03-2021_08:16:16,1904
1612,16-03-2021_08:16:16,2305
1613,16-03-2021_08:16:16,1663
1614,16-03-2021_08:16:16,2313
1615,16-03-2021_08:16:16,1890
1616,16-03-2021_08:16:16,1881
1617,16-03-2021_08:16:16,2310
1618,16-03-2021_08:16:16,1654
1619,16-03-2021_08:16:16,2291
1620,16-03-2021_08:16:16,1865
1621,16-03-2021_08:16:16,1860
1622,16-03-2021_08:16:16,2270
1623,16-03-2021_08:16:16,1605
1624,16-03-2021_08:16:16,2263
1625,16-03-2021_08:16:16,1719
1626,16-03-2021_08:16:16,1763
1627,16-03-2021_08:16:16,2553
1628,16-03-2021_08:16:16,2800
1629,16-03-2021_08:16:16,4095
1630,16-03-2021_08:16:16,2654
1631,16-03-2021_08:16:16,2031
1632,16-03-2021_08:16:16,2156
1633,16-03-2021_08:16:16,1456
1634,16-03-2021_08:16:16,2111
1635,16-03-2021_08:16:16,1683
1636,16-03-2021_08:16:16,1680
1637,16-03-2021_08:16:16,2083
1638,16-03-2021_08:16:16,1431
1639,16-03-2021_08:16:16,2095
1640,16-03-2021_08:16:16,1681
1641,16-03-2021_08:16:16,1675
1642,16-03-2021_08:16:16,2065
1643,16-03-2021_08:16:16,1406
1644,16-03-2021_08:16:16,2081
1645,16-03-2021_08:16:16,1648
1646,16-03-2021_08:16:16,1639
1647,16-03-2021_08:16:16,2041
1648,16-03-2021_08:16:16,1411
1649,16-03-2021_08:16:16,2095
1650,16-03-2021_08:16:16,1712
1651,16-03-2021_08:16:16,1721
1652,16-03-2021_08:16:16,2149
1653,16-03-2021_08:16:16,1552
1654,16-03-2021_08:16:16,2256
1655,16-03-2021_08:16:16,1862
1656,16-03-2021_08:16:16,1850
1657,16-03-2021_08:16:16,2224
1658,16-03-2021_08:16:16,1571
1659,16-03-2021_08:16:16,2214
1660,16-03-2021_08:16:16,1791
1661,16-03-2021_08:16:16,1789
1662,16-03-2021_08:16:16,2176
1663,16-03-2021_08:16:16,1552
1664,16-03-2021_08:16:16,2226
1665,16-03-2021_08:16:16,1815
1666,16-03-2021_08:16:16,1817
1667,16-03-2021_08:16:16,2226
1668,16-03-2021_08:16:16,1613
1669,16-03-2021_08:16:16,2266
1670,16-03-2021_08:16:16,1856
1671,16-03-2021_08:16:16,1870
1672,16-03-2021_08:16:16,2262
1673,16-03-2021_08:16:16,1638
1674,16-03-2021_08:16:16,2308
1675,16-03-2021_08:16:16,1897
1676,16-03-2021_08:16:16,1903
1677,16-03-2021_08:16:16,2299
1678,16-03-2021_08:16:16,1675
1679,16-03-2021_08:16:16,2326
1680,16-03-2021_08:16:16,1920
1681,16-03-2021_08:16:16,1913
1682,16-03-2021_08:16:16,2322
1683,16-03-2021_08:16:16,1681
1684,16-03-2021_08:16:16,2338
1685,16-03-2021_08:16:16,1941
1686,16-03-2021_08:16:16,1954
1687,16-03-2021_08:16:16,2362
1688,16-03-2021_08:16:16,1702
1689,16-03-2021_08:16:16,2396
1690,16-03-2021_08:16:16,1971
1691,16-03-2021_08:16:16,1968
1692,16-03-2021_08:16:16,2352
1693,16-03-2021_08:16:16,1703
1694,16-03-2021_08:16:16,2358
1695,16-03-2021_08:16:16,1940
1696,16-03-2021_08:16:16,1955
1697,16-03-2021_08:16:16,2333
1698,16-03-2021_08:16:17,1693
1699,16-03-2021_08:16:17,2362
1700,16-03-2021_08:16:17,1943
1701,16-03-2021_08:16:17,1954
1702,16-03-2021_08:16:17,2366
1703,16-03-2021_08:16:17,1711
1704,16-03-2021_08:16:17,2374
1705,16-03-2021_08:16:17,1971
1706,16-03-2021_08:16:17,1989
1707,16-03-2021_08:16:17,2359
1708,16-03-2021_08:16:17,1704
1709,16-03-2021_08:16:17,2346
1710,16-03-2021_08:16:17,1933
1711,16-03-2021_08:16:17,1927
1712,16-03-2021_08:16:17,2295
1713,16-03-2021_08:16:17,1658
1714,16-03-2021_08:16:17,2182
1715,16-03-2021_08:16:17,1889
1716,16-03-2021_08:16:17,2383
1717,16-03-2021_08:16:17,4095
1718,16-03-2021_08:16:17,3632
1719,16-03-2021_08:16:17,2934
1720,16-03-2021_08:16:17,1968
1721,16-03-2021_08:16:17,1845
1722,16-03-2021_08:16:17,2205
1723,16-03-2021_08:16:17,1552
1724,16-03-2021_08:16:17,2202
1725,16-03-2021_08:16:17,1797
1726,16-03-2021_08:16:17,1801
1727,16-03-2021_08:16:17,2189
1728,16-03-2021_08:16:17,1575
1729,16-03-2021_08:16:17,2230
1730,16-03-2021_08:16:17,1823
1731,16-03-2021_08:16:17,1836
1732,16-03-2021_08:16:17,2226
1733,16-03-2021_08:16:17,1595
1734,16-03-2021_08:16:17,2243
1735,16-03-2021_08:16:17,1825
1736,16-03-2021_08:16:17,1840
1737,16-03-2021_08:16:17,2247
1738,16-03-2021_08:16:17,1616
1739,16-03-2021_08:16:17,2288
1740,16-03-2021_08:16:17,1883
1741,16-03-2021_08:16:17,1920
1742,16-03-2021_08:16:17,2340
1743,16-03-2021_08:16:17,1742
1744,16-03-2021_08:16:17,2429
1745,16-03-2021_08:16:17,2013
1746,16-03-2021_08:16:17,2002
1747,16-03-2021_08:16:17,2375
1748,16-03-2021_08:16:17,1726
1749,16-03-2021_08:16:17,2389
1750,16-03-2021_08:16:17,1973
1751,16-03-2021_08:16:17,1999
1752,16-03-2021_08:16:17,2385
1753,16-03-2021_08:16:17,1739
1754,16-03-2021_08:16:17,2406
1755,16-03-2021_08:16:17,1984
1756,16-03-2021_08:16:17,2000
1757,16-03-2021_08:16:17,2387
1758,16-03-2021_08:16:17,1766
1759,16-03-2021_08:16:17,2427
1760,16-03-2021_08:16:17,2003
1761,16-03-2021_08:16:17,2021
1762,16-03-2021_08:16:17,2401
1763,16-03-2021_08:16:17,1763
1764,16-03-2021_08:16:17,2439
1765,16-03-2021_08:16:17,2005
1766,16-03-2021_08:16:17,2027
1767,16-03-2021_08:16:17,2396
1768,16-03-2021_08:16:17,1759
1769,16-03-2021_08:16:17,2416
1770,16-03-2021_08:16:17,1983
1771,16-03-2021_08:16:17,1999
1772,16-03-2021_08:16:17,2379
1773,16-03-2021_08:16:17,1744
1774,16-03-2021_08:16:17,2417
1775,16-03-2021_08:16:17,1986
1776,16-03-2021_08:16:17,1993
1777,16-03-2021_08:16:17,2343
1778,16-03-2021_08:16:17,1712
1779,16-03-2021_08:16:17,2375
1780,16-03-2021_08:16:17,1948
1781,16-03-2021_08:16:17,1957
1782,16-03-2021_08:16:17,2321
1783,16-03-2021_08:16:17,1697
1784,16-03-2021_08:16:17,2352
1785,16-03-2021_08:16:17,1930
1786,16-03-2021_08:16:17,1928
1787,16-03-2021_08:16:17,2305
1788,16-03-2021_08:16:17,1692
1789,16-03-2021_08:16:17,2331
1790,16-03-2021_08:16:17,1904
1791,16-03-2021_08:16:17,1931
1792,16-03-2021_08:16:17,2300
1793,16-03-2021_08:16:17,1666
1794,16-03-2021_08:16:17,2309
1795,16-03-2021_08:16:17,1872
1796,16-03-2021_08:16:17,1885
1797,16-03-2021_08:16:17,2288
1798,16-03-2021_08:16:17,1641
1799,16-03-2021_08:16:18,2287
1800,16-03-2021_08:16:18,1857
1801,16-03-2021_08:16:18,1902
1802,16-03-2021_08:16:18,2271
1803,16-03-2021_08:16:18,1609
1804,16-03-2021_08:16:18,2263
1805,16-03-2021_08:16:18,1835
1806,16-03-2021_08:16:18,1865
1807,16-03-2021_08:16:18,2244
1808,16-03-2021_08:16:18,1600
1809,16-03-2021_08:16:18,2167
1810,16-03-2021_08:16:18,1758
1811,16-03-2021_08:16:18,2119
1812,16-03-2021_08:16:18,3439
1813,16-03-2021_08:16:18,3710
1814,16-03-2021_08:16:18,3136
1815,16-03-2021_08:16:18,2015
1816,16-03-2021_08:16:18,1782
1817,16-03-2021_08:16:18,2112
1818,16-03-2021_08:16:18,1439
1819,16-03-2021_08:16:18,2102
1820,16-03-2021_08:16:18,1652
1821,16-03-2021_08:16:18,1686
1822,16-03-2021_08:16:18,2071
1823,16-03-2021_08:16:18,1410
1824,16-03-2021_08:16:18,2106
1825,16-03-2021_08:16:18,1665
1826,16-03-2021_08:16:18,1710
1827,16-03-2021_08:16:18,2080
1828,16-03-2021_08:16:18,1435
1829,16-03-2021_08:16:18,2112
1830,16-03-2021_08:16:18,1670
1831,16-03-2021_08:16:18,1715
1832,16-03-2021_08:16:18,2095
1833,16-03-2021_08:16:18,1450
1834,16-03-2021_08:16:18,2148
1835,16-03-2021_08:16:18,1744
1836,16-03-2021_08:16:18,1799
1837,16-03-2021_08:16:18,2205
1838,16-03-2021_08:16:18,1607
1839,16-03-2021_08:16:18,2318
1840,16-03-2021_08:16:18,1870
1841,16-03-2021_08:16:18,1872
1842,16-03-2021_08:16:18,2217
1843,16-03-2021_08:16:18,1514
1844,16-03-2021_08:16:18,2170
1845,16-03-2021_08:16:18,1723
1846,16-03-2021_08:16:18,1743
1847,16-03-2021_08:16:18,2136
1848,16-03-2021_08:16:18,1477
1849,16-03-2021_08:16:18,2169
1850,16-03-2021_08:16:18,1724
1851,16-03-2021_08:16:18,1735
1852,16-03-2021_08:16:18,2127
1853,16-03-2021_08:16:18,1495
1854,16-03-2021_08:16:18,2160
1855,16-03-2021_08:16:18,1719
1856,16-03-2021_08:16:18,1758
1857,16-03-2021_08:16:18,2147
1858,16-03-2021_08:16:18,1503
1859,16-03-2021_08:16:18,2182
1860,16-03-2021_08:16:18,1741
1861,16-03-2021_08:16:18,1773
1862,16-03-2021_08:16:18,2156
1863,16-03-2021_08:16:18,1509
1864,16-03-2021_08:16:18,2192
1865,16-03-2021_08:16:18,1757
1866,16-03-2021_08:16:18,1786
1867,16-03-2021_08:16:18,2174
1868,16-03-2021_08:16:18,1507
1869,16-03-2021_08:16:18,2182
1870,16-03-2021_08:16:18,1745
1871,16-03-2021_08:16:18,1787
1872,16-03-2021_08:16:18,2160
1873,16-03-2021_08:16:18,1515
1874,16-03-2021_08:16:18,2225
1875,16-03-2021_08:16:18,1776
1876,16-03-2021_08:16:18,1805
1877,16-03-2021_08:16:18,2177
1878,16-03-2021_08:16:18,1562
1879,16-03-2021_08:16:18,2223
1880,16-03-2021_08:16:18,1798
1881,16-03-2021_08:16:18,1830
1882,16-03-2021_08:16:18,2175
1883,16-03-2021_08:16:18,1565
1884,16-03-2021_08:16:18,2199
1885,16-03-2021_08:16:18,1776
1886,16-03-2021_08:16:18,1793
1887,16-03-2021_08:16:18,2141
1888,16-03-2021_08:16:18,1569
1889,16-03-2021_08:16:18,2190
1890,16-03-2021_08:16:18,1804
1891,16-03-2021_08:16:18,1837
1892,16-03-2021_08:16:18,2161
1893,16-03-2021_08:16:18,1602
1894,16-03-2021_08:16:18,2244
1895,16-03-2021_08:16:18,1862
1896,16-03-2021_08:16:18,1857
1897,16-03-2021_08:16:18,2182
1898,16-03-2021_08:16:19,1634
1899,16-03-2021_08:16:19,2231
1900,16-03-2021_08:16:19,1840
1901,16-03-2021_08:16:19,1871
1902,16-03-2021_08:16:19,2081
1903,16-03-2021_08:16:19,1547
1904,16-03-2021_08:16:19,2519
1905,16-03-2021_08:16:19,2971
1906,16-03-2021_08:16:19,3997
1907,16-03-2021_08:16:19,3041
1908,16-03-2021_08:16:19,1856
1909,16-03-2021_08:16:19,2163
1910,16-03-2021_08:16:19,1731
1911,16-03-2021_08:16:19,1723
1912,16-03-2021_08:16:19,2043
1913,16-03-2021_08:16:19,1457
1914,16-03-2021_08:16:19,2075
1915,16-03-2021_08:16:19,1680
1916,16-03-2021_08:16:19,1722
1917,16-03-2021_08:16:19,2058
1918,16-03-2021_08:16:19,1479
1919,16-03-2021_08:16:19,2118
1920,16-03-2021_08:16:19,1733
1921,16-03-2021_08:16:19,1773
1922,16-03-2021_08:16:19,2119
1923,16-03-2021_08:16:19,1534
1924,16-03-2021_08:16:19,2159
1925,16-03-2021_08:16:19,1763
1926,16-03-2021_08:16:19,1807
1927,16-03-2021_08:16:19,2163
1928,16-03-2021_08:16:19,1600
1929,16-03-2021_08:16:19,2262
1930,16-03-2021_08:16:19,1887
1931,16-03-2021_08:16:19,1973
1932,16-03-2021_08:16:19,2361
1933,16-03-2021_08:16:19,1762
1934,16-03-2021_08:16:19,2384
1935,16-03-2021_08:16:19,1945
1936,16-03-2021_08:16:19,1957
1937,16-03-2021_08:16:19,2281
1938,16-03-2021_08:16:19,1693
1939,16-03-2021_08:16:19,2329
1940,16-03-2021_08:16:19,1904
1941,16-03-2021_08:16:19,1936
1942,16-03-2021_08:16:19,2290
1943,16-03-2021_08:16:19,1712
1944,16-03-2021_08:16:19,2338
1945,16-03-2021_08:16:19,1934
1946,16-03-2021_08:16:19,1978
1947,16-03-2021_08:16:19,2308
1948,16-03-2021_08:16:19,1746
1949,16-03-2021_08:16:19,2352
1950,16-03-2021_08:16:19,1962
1951,16-03-2021_08:16:19,2001
1952,16-03-2021_08:16:19,2335
1953,16-03-2021_08:16:19,1783
1954,16-03-2021_08:16:19,2364
1955,16-03-2021_08:16:19,1969
1956,16-03-2021_08:16:19,2000
1957,16-03-2021_08:16:19,2337
1958,16-03-2021_08:16:19,1785
1959,16-03-2021_08:16:19,2369
1960,16-03-2021_08:16:19,1985
1961,16-03-2021_08:16:19,2026
1962,16-03-2021_08:16:19,2366
1963,16-03-2021_08:16:19,1799
1964,16-03-2021_08:16:19,2413
1965,16-03-2021_08:16:19,2016
1966,16-03-2021_08:16:19,2054
1967,16-03-2021_08:16:19,2381
1968,16-03-2021_08:16:19,1814
1969,16-03-2021_08:16:19,2445
1970,16-03-2021_08:16:19,2043
1971,16-03-2021_08:16:19,2071
1972,16-03-2021_08:16:19,2395
1973,16-03-2021_08:16:19,1822
1974,16-03-2021_08:16:19,2437
1975,16-03-2021_08:16:19,2045
1976,16-03-2021_08:16:19,2069
1977,16-03-2021_08:16:19,2370
1978,16-03-2021_08:16:19,1808
1979,16-03-2021_08:16:19,2405
1980,16-03-2021_08:16:19,2000
1981,16-03-2021_08:16:19,2032
1982,16-03-2021_08:16:19,2355
1983,16-03-2021_08:16:19,1796
1984,16-03-2021_08:16:19,2384
1985,16-03-2021_08:16:19,1998
1986,16-03-2021_08:16:19,2053
1987,16-03-2021_08:16:19,2387
1988,16-03-2021_08:16:19,1809
1989,16-03-2021_08:16:19,2381
1990,16-03-2021_08:16:19,1959
1991,16-03-2021_08:16:19,2013
1992,16-03-2021_08:16:19,2349
1993,16-03-2021_08:16:19,1767
1994,16-03-2021_08:16:19,2332
1995,16-03-2021_08:16:19,1808
1996,16-03-2021_08:16:19,2011
1997,16-03-2021_08:16:19,2924
1998,16-03-2021_08:16:19,3541
1999,16-03-2021_08:16:20,4095
2000,16-03-2021_08:16:20,2371
2001,16-03-2021_08:16:20,1966
2002,16-03-2021_08:16:20,2186
2003,16-03-2021_08:16:20,1584
2004,16-03-2021_08:16:20,2160
2005,16-03-2021_08:16:20,1765
2006,16-03-2021_08:16:20,1786
2007,16-03-2021_08:16:20,2127
2008,16-03-2021_08:16:20,1552
2009,16-03-2021_08:16:20,2160
2010,16-03-2021_08:16:20,1751
2011,16-03-2021_08:16:20,1790
2012,16-03-2021_08:16:20,2129
2013,16-03-2021_08:16:20,1562
2014,16-03-2021_08:16:20,2158
2015,16-03-2021_08:16:20,1763
2016,16-03-2021_08:16:20,1791
2017,16-03-2021_08:16:20,2102
2018,16-03-2021_08:16:20,1546
2019,16-03-2021_08:16:20,2167
2020,16-03-2021_08:16:20,1797
2021,16-03-2021_08:16:20,1855
2022,16-03-2021_08:16:20,2224
2023,16-03-2021_08:16:20,1707
2024,16-03-2021_08:16:20,2355
2025,16-03-2021_08:16:20,1986
2026,16-03-2021_08:16:20,1987
2027,16-03-2021_08:16:20,2295
2028,16-03-2021_08:16:20,1712
2029,16-03-2021_08:16:20,2314
2030,16-03-2021_08:16:20,1914
2031,16-03-2021_08:16:20,1926
2032,16-03-2021_08:16:20,2264
2033,16-03-2021_08:16:20,1687
2034,16-03-2021_08:16:20,2292
2035,16-03-2021_08:16:20,1903
2036,16-03-2021_08:16:20,1930
2037,16-03-2021_08:16:20,2277
2038,16-03-2021_08:16:20,1690
2039,16-03-2021_08:16:20,2293
2040,16-03-2021_08:16:20,1904
2041,16-03-2021_08:16:20,1922
2042,16-03-2021_08:16:20,2279
2043,16-03-2021_08:16:20,1707
2044,16-03-2021_08:16:20,2336
2045,16-03-2021_08:16:20,1936
2046,16-03-2021_08:16:20,1963
2047,16-03-2021_08:16:20,2301
2048,16-03-2021_08:16:20,1725
2049,16-03-2021_08:16:20,2332
2050,16-03-2021_08:16:20,1940
2051,16-03-2021_08:16:20,1968
2052,16-03-2021_08:16:20,2303
2053,16-03-2021_08:16:20,1717
2054,16-03-2021_08:16:20,2320
2055,16-03-2021_08:16:20,1923
2056,16-03-2021_08:16:20,1936
2057,16-03-2021_08:16:20,2268
2058,16-03-2021_08:16:20,1696
2059,16-03-2021_08:16:20,2304
2060,16-03-2021_08:16:20,1890
2061,16-03-2021_08:16:20,1922
2062,16-03-2021_08:16:20,2265
2063,16-03-2021_08:16:20,1671
2064,16-03-2021_08:16:20,2298
2065,16-03-2021_08:16:20,1897
2066,16-03-2021_08:16:20,1905
2067,16-03-2021_08:16:20,2243
2068,16-03-2021_08:16:20,1685
2069,16-03-2021_08:16:20,2288
2070,16-03-2021_08:16:20,1901
2071,16-03-2021_08:16:20,1935
2072,16-03-2021_08:16:20,2291
2073,16-03-2021_08:16:20,1713
2074,16-03-2021_08:16:20,2290
2075,16-03-2021_08:16:20,1899
2076,16-03-2021_08:16:20,1949
2077,16-03-2021_08:16:20,2282
2078,16-03-2021_08:16:20,1677
2079,16-03-2021_08:16:20,2263
2080,16-03-2021_08:16:20,1861
2081,16-03-2021_08:16:20,1884
2082,16-03-2021_08:16:20,2224
2083,16-03-2021_08:16:20,1636
2084,16-03-2021_08:16:20,2138
2085,16-03-2021_08:16:20,1771
2086,16-03-2021_08:16:20,2165
2087,16-03-2021_08:16:20,3471
2088,16-03-2021_08:16:20,3646
2089,16-03-2021_08:16:20,3043
2090,16-03-2021_08:16:20,2018
2091,16-03-2021_08:16:20,1794
2092,16-03-2021_08:16:20,2087
2093,16-03-2021_08:16:20,1466
2094,16-03-2021_08:16:20,2081
2095,16-03-2021_08:16:20,1665
2096,16-03-2021_08:16:20,1695
2097,16-03-2021_08:16:20,2055
2098,16-03-2021_08:16:21,1458
2099,16-03-2021_08:16:21,2092
2100,16-03-2021_08:16:21,1691
2101,16-03-2021_08:16:21,1717
2102,16-03-2021_08:16:21,2055
2103,16-03-2021_08:16:21,1478
2104,16-03-2021_08:16:21,2116
2105,16-03-2021_08:16:21,1710
2106,16-03-2021_08:16:21,1711
2107,16-03-2021_08:16:21,2064
2108,16-03-2021_08:16:21,1488
2109,16-03-2021_08:16:21,2138
2110,16-03-2021_08:16:21,1762
2111,16-03-2021_08:16:21,1819
2112,16-03-2021_08:16:21,2219
2113,16-03-2021_08:16:21,1670
2114,16-03-2021_08:16:21,2298
2115,16-03-2021_08:16:21,1891
2116,16-03-2021_08:16:21,1868
2117,16-03-2021_08:16:21,2189
2118,16-03-2021_08:16:21,1593
2119,16-03-2021_08:16:21,2191
2120,16-03-2021_08:16:21,1775
2121,16-03-2021_08:16:21,1796
2122,16-03-2021_08:16:21,2142
2123,16-03-2021_08:16:21,1545
2124,16-03-2021_08:16:21,2176
2125,16-03-2021_08:16:21,1777
2126,16-03-2021_08:16:21,1794
2127,16-03-2021_08:16:21,2157
2128,16-03-2021_08:16:21,1584
2129,16-03-2021_08:16:21,2198
2130,16-03-2021_08:16:21,1811
2131,16-03-2021_08:16:21,1826
2132,16-03-2021_08:16:21,2176
2133,16-03-2021_08:16:21,1600
2134,16-03-2021_08:16:21,2229
2135,16-03-2021_08:16:21,1839
2136,16-03-2021_08:16:21,1859
2137,16-03-2021_08:16:21,2199
2138,16-03-2021_08:16:21,1615
2139,16-03-2021_08:16:21,2243
2140,16-03-2021_08:16:21,1847
2141,16-03-2021_08:16:21,1872
2142,16-03-2021_08:16:21,2221
2143,16-03-2021_08:16:21,1622
2144,16-03-2021_08:16:21,2256
2145,16-03-2021_08:16:21,1859
2146,16-03-2021_08:16:21,1873
2147,16-03-2021_08:16:21,2230
2148,16-03-2021_08:16:21,1632
2149,16-03-2021_08:16:21,2282
2150,16-03-2021_08:16:21,1887
2151,16-03-2021_08:16:21,1903
2152,16-03-2021_08:16:21,2269
2153,16-03-2021_08:16:21,1667
2154,16-03-2021_08:16:21,2288
2155,16-03-2021_08:16:21,1909
2156,16-03-2021_08:16:21,1923
2157,16-03-2021_08:16:21,2283
2158,16-03-2021_08:16:21,1680
2159,16-03-2021_08:16:21,2294
2160,16-03-2021_08:16:21,1920
2161,16-03-2021_08:16:21,1951
2162,16-03-2021_08:16:21,2306
2163,16-03-2021_08:16:21,1681
2164,16-03-2021_08:16:21,2291
2165,16-03-2021_08:16:21,1903
2166,16-03-2021_08:16:21,1920
2167,16-03-2021_08:16:21,2287
2168,16-03-2021_08:16:21,1679
2169,16-03-2021_08:16:21,2176
2170,16-03-2021_08:16:21,1930
2171,16-03-2021_08:16:21,2439
2172,16-03-2021_08:16:21,4095
2173,16-03-2021_08:16:21,3558
2174,16-03-2021_08:16:21,2886
2175,16-03-2021_08:16:21,1965
2176,16-03-2021_08:16:21,1833
2177,16-03-2021_08:16:21,2154
2178,16-03-2021_08:16:21,1535
2179,16-03-2021_08:16:21,2134
2180,16-03-2021_08:16:21,1759
2181,16-03-2021_08:16:21,1769
2182,16-03-2021_08:16:21,2129
2183,16-03-2021_08:16:21,1550
2184,16-03-2021_08:16:21,2160
2185,16-03-2021_08:16:21,1771
2186,16-03-2021_08:16:21,1781
2187,16-03-2021_08:16:21,2141
2188,16-03-2021_08:16:21,1570
2189,16-03-2021_08:16:21,2183
2190,16-03-2021_08:16:21,1793
2191,16-03-2021_08:16:21,1802
2192,16-03-2021_08:16:21,2150
2193,16-03-2021_08:16:21,1565
2194,16-03-2021_08:16:21,2199
2195,16-03-2021_08:16:21,1831
2196,16-03-2021_08:16:21,1883
2197,16-03-2021_08:16:21,2287
2198,16-03-2021_08:16:21,1731
2199,16-03-2021_08:16:22,2358
2200,16-03-2021_08:16:22,1948
2201,16-03-2021_08:16:22,1931
2202,16-03-2021_08:16:22,2253
2203,16-03-2021_08:16:22,1632
2204,16-03-2021_08:16:22,2241
2205,16-03-2021_08:16:22,1849
2206,16-03-2021_08:16:22,1849
2207,16-03-2021_08:16:22,2224
2208,16-03-2021_08:16:22,1627
2209,16-03-2021_08:16:22,2262
2210,16-03-2021_08:16:22,1879
2211,16-03-2021_08:16:22,1895
2212,16-03-2021_08:16:22,2272
2213,16-03-2021_08:16:22,1677
2214,16-03-2021_08:16:22,2307
2215,16-03-2021_08:16:22,1916
2216,16-03-2021_08:16:22,1936
2217,16-03-2021_08:16:22,2308
2218,16-03-2021_08:16:22,1705
2219,16-03-2021_08:16:22,2326
2220,16-03-2021_08:16:22,1943
2221,16-03-2021_08:16:22,1955
2222,16-03-2021_08:16:22,2309
2223,16-03-2021_08:16:22,1701
2224,16-03-2021_08:16:22,2307
2225,16-03-2021_08:16:22,1918
2226,16-03-2021_08:16:22,1934
2227,16-03-2021_08:16:22,2304
2228,16-03-2021_08:16:22,1698
2229,16-03-2021_08:16:22,2310
2230,16-03-2021_08:16:22,1927
2231,16-03-2021_08:16:22,1939
2232,16-03-2021_08:16:22,2293
2233,16-03-2021_08:16:22,1697
2234,16-03-2021_08:16:22,2306
2235,16-03-2021_08:16:22,1927
2236,16-03-2021_08:16:22,1930
2237,16-03-2021_08:16:22,2297
2238,16-03-2021_08:16:22,1690
2239,16-03-2021_08:16:22,2321
2240,16-03-2021_08:16:22,1932
2241,16-03-2021_08:16:22,1934
2242,16-03-2021_08:16:22,2307
2243,16-03-2021_08:16:22,1714
2244,16-03-2021_08:16:22,2349
2245,16-03-2021_08:16:22,1947
2246,16-03-2021_08:16:22,1941
2247,16-03-2021_08:16:22,2325
2248,16-03-2021_08:16:22,1744
2249,16-03-2021_08:16:22,2371
2250,16-03-2021_08:16:22,1926
2251,16-03-2021_08:16:22,1920
2252,16-03-2021_08:16:22,2304
2253,16-03-2021_08:16:22,1710
2254,16-03-2021_08:16:22,2335
2255,16-03-2021_08:16:22,1898
2256,16-03-2021_08:16:22,1779
2257,16-03-2021_08:16:22,2269
2258,16-03-2021_08:16:22,2135
2259,16-03-2021_08:16:22,4095
2260,16-03-2021_08:16:22,3763
2261,16-03-2021_08:16:22,2465
2262,16-03-2021_08:16:22,2343
2263,16-03-2021_08:16:22,1594
2264,16-03-2021_08:16:22,2202
2265,16-03-2021_08:16:22,1767
2266,16-03-2021_08:16:22,1747
2267,16-03-2021_08:16:22,2134
2268,16-03-2021_08:16:22,1530
2269,16-03-2021_08:16:22,2160
2270,16-03-2021_08:16:22,1763
2271,16-03-2021_08:16:22,1783
2272,16-03-2021_08:16:22,2161
2273,16-03-2021_08:16:22,1557
2274,16-03-2021_08:16:22,2208
2275,16-03-2021_08:16:22,1821
2276,16-03-2021_08:16:22,1831
2277,16-03-2021_08:16:22,2198
2278,16-03-2021_08:16:22,1595
2279,16-03-2021_08:16:22,2216
2280,16-03-2021_08:16:22,1828
2281,16-03-2021_08:16:22,1853
2282,16-03-2021_08:16:22,2240
2283,16-03-2021_08:16:22,1671
2284,16-03-2021_08:16:22,2341
2285,16-03-2021_08:16:22,1993
2286,16-03-2021_08:16:22,2001
2287,16-03-2021_08:16:22,2356
2288,16-03-2021_08:16:22,1729
2289,16-03-2021_08:16:22,2317
2290,16-03-2021_08:16:22,1899
2291,16-03-2021_08:16:22,1882
2292,16-03-2021_08:16:22,2258
2293,16-03-2021_08:16:22,1645
2294,16-03-2021_08:16:22,2274
2295,16-03-2021_08:16:22,1879
2296,16-03-2021_08:16:22,1887
2297,16-03-2021_08:16:22,2259
2298,16-03-2021_08:16:23,1652
2299,16-03-2021_08:16:23,2302
2300,16-03-2021_08:16:23,1907
2301,16-03-2021_08:16:23,1925
2302,16-03-2021_08:16:23,2311
2303,16-03-2021_08:16:23,1714
2304,16-03-2021_08:16:23,2352
2305,16-03-2021_08:16:23,1967
2306,16-03-2021_08:16:23,1968
2307,16-03-2021_08:16:23,2352
2308,16-03-2021_08:16:23,1759
2309,16-03-2021_08:16:23,2388
2310,16-03-2021_08:16:23,2000
2311,16-03-2021_08:16:23,2015
2312,16-03-2021_08:16:23,2384
2313,16-03-2021_08:16:23,1782
2314,16-03-2021_08:16:23,2416
2315,16-03-2021_08:16:23,2031
2316,16-03-2021_08:16:23,2028
2317,16-03-2021_08:16:23,2398
2318,16-03-2021_08:16:23,1794
2319,16-03-2021_08:16:23,2411
2320,16-03-2021_08:16:23,2005
2321,16-03-2021_08:16:23,2005
2322,16-03-2021_08:16:23,2372
2323,16-03-2021_08:16:23,1759
2324,16-03-2021_08:16:23,2384
2325,16-03-2021_08:16:23,1984
2326,16-03-2021_08:16:23,1997
2327,16-03-2021_08:16:23,2365
2328,16-03-2021_08:16:23,1754
2329,16-03-2021_08:16:23,2386
2330,16-03-2021_08:16:23,1981
2331,16-03-2021_08:16:23,1968
2332,16-03-2021_08:16:23,2359
2333,16-03-2021_08:16:23,1733
2334,16-03-2021_08:16:23,2352
2335,16-03-2021_08:16:23,1963
2336,16-03-2021_08:16:23,1973
2337,16-03-2021_08:16:23,2342
2338,16-03-2021_08:16:23,1707
2339,16-03-2021_08:16:23,2327
2340,16-03-2021_08:16:23,1942
2341,16-03-2021_08:16:23,1938
2342,16-03-2021_08:16:23,2307
2343,16-03-2021_08:16:23,1648
2344,16-03-2021_08:16:23,2178
2345,16-03-2021_08:16:23,1955
2346,16-03-2021_08:16:23,2481
2347,16-03-2021_08:16:23,4095
2348,16-03-2021_08:16:23,3216
2349,16-03-2021_08:16:23,2763
2350,16-03-2021_08:16:23,1873
2351,16-03-2021_08:16:23,1747
2352,16-03-2021_08:16:23,2107
2353,16-03-2021_08:16:23,1442
2354,16-03-2021_08:16:23,2095
2355,16-03-2021_08:16:23,1680
2356,16-03-2021_08:16:23,1691
2357,16-03-2021_08:16:23,2074
2358,16-03-2021_08:16:23,1466
2359,16-03-2021_08:16:23,2101
2360,16-03-2021_08:16:23,1703
2361,16-03-2021_08:16:23,1711
2362,16-03-2021_08:16:23,2098
2363,16-03-2021_08:16:23,1477
2364,16-03-2021_08:16:23,2131
2365,16-03-2021_08:16:23,1729
2366,16-03-2021_08:16:23,1733
2367,16-03-2021_08:16:23,2112
2368,16-03-2021_08:16:23,1498
2369,16-03-2021_08:16:23,2155
2370,16-03-2021_08:16:23,1786
2371,16-03-2021_08:16:23,1831
2372,16-03-2021_08:16:23,2246
2373,16-03-2021_08:16:23,1654
2374,16-03-2021_08:16:23,2311
2375,16-03-2021_08:16:23,1888
2376,16-03-2021_08:16:23,1845
2377,16-03-2021_08:16:23,2185
2378,16-03-2021_08:16:23,1533
2379,16-03-2021_08:16:23,2163
2380,16-03-2021_08:16:23,1757
2381,16-03-2021_08:16:23,1758
2382,16-03-2021_08:16:23,2154
2383,16-03-2021_08:16:23,1527
2384,16-03-2021_08:16:23,2180
2385,16-03-2021_08:16:23,1776
2386,16-03-2021_08:16:23,1791
2387,16-03-2021_08:16:23,2166
2388,16-03-2021_08:16:23,1561
2389,16-03-2021_08:16:23,2195
2390,16-03-2021_08:16:23,1798
2391,16-03-2021_08:16:23,1792
2392,16-03-2021_08:16:23,2170
2393,16-03-2021_08:16:23,1586
2394,16-03-2021_08:16:23,2224
2395,16-03-2021_08:16:23,1840
2396,16-03-2021_08:16:23,1840
2397,16-03-2021_08:16:23,2225
2398,16-03-2021_08:16:23,1618
2399,16-03-2021_08:16:24,2256
2400,16-03-2021_08:16:24,1856
2401,16-03-2021_08:16:24,1859
2402,16-03-2021_08:16:24,2242
2403,16-03-2021_08:16:24,1629
2404,16-03-2021_08:16:24,2281
2405,16-03-2021_08:16:24,1873
2406,16-03-2021_08:16:24,1873
2407,16-03-2021_08:16:24,2256
2408,16-03-2021_08:16:24,1639
2409,16-03-2021_08:16:24,2263
2410,16-03-2021_08:16:24,1871
2411,16-03-2021_08:16:24,1872
2412,16-03-2021_08:16:24,2246
2413,16-03-2021_08:16:24,1627
2414,16-03-2021_08:16:24,2282
2415,16-03-2021_08:16:24,1904
2416,16-03-2021_08:16:24,1919
2417,16-03-2021_08:16:24,2320
2418,16-03-2021_08:16:24,1712
2419,16-03-2021_08:16:24,2320
2420,16-03-2021_08:16:24,1959
2421,16-03-2021_08:16:24,1982
2422,16-03-2021_08:16:24,2352
2423,16-03-2021_08:16:24,1721
2424,16-03-2021_08:16:24,2339
2425,16-03-2021_08:16:24,1955
2426,16-03-2021_08:16:24,1978
2427,16-03-2021_08:16:24,2350
2428,16-03-2021_08:16:24,1739
2429,16-03-2021_08:16:24,2242
2430,16-03-2021_08:16:24,1904
2431,16-03-2021_08:16:24,2270
2432,16-03-2021_08:16:24,3666
2433,16-03-2021_08:16:24,3915
2434,16-03-2021_08:16:24,3202
2435,16-03-2021_08:16:24,2130
2436,16-03-2021_08:16:24,1904
2437,16-03-2021_08:16:24,2227
2438,16-03-2021_08:16:24,1598
2439,16-03-2021_08:16:24,2222
2440,16-03-2021_08:16:24,1819
2441,16-03-2021_08:16:24,1811
2442,16-03-2021_08:16:24,2183
2443,16-03-2021_08:16:24,1583
2444,16-03-2021_08:16:24,2216
2445,16-03-2021_08:16:24,1818
2446,16-03-2021_08:16:24,1813
2447,16-03-2021_08:16:24,2206
2448,16-03-2021_08:16:24,1602
2449,16-03-2021_08:16:24,2224
2450,16-03-2021_08:16:24,1817
2451,16-03-2021_08:16:24,1838
2452,16-03-2021_08:16:24,2221
2453,16-03-2021_08:16:24,1613
2454,16-03-2021_08:16:24,2258
2455,16-03-2021_08:16:24,1887
2456,16-03-2021_08:16:24,1920
2457,16-03-2021_08:16:24,2339
2458,16-03-2021_08:16:24,1774
2459,16-03-2021_08:16:24,2431
2460,16-03-2021_08:16:24,2032
2461,16-03-2021_08:16:24,1993
2462,16-03-2021_08:16:24,2330
2463,16-03-2021_08:16:24,1696
2464,16-03-2021_08:16:24,2310
2465,16-03-2021_08:16:24,1911
2466,16-03-2021_08:16:24,1911
2467,16-03-2021_08:16:24,2273
2468,16-03-2021_08:16:24,1680
2469,16-03-2021_08:16:24,2304
2470,16-03-2021_08:16:24,1922
2471,16-03-2021_08:16:24,1930
2472,16-03-2021_08:16:24,2288
2473,16-03-2021_08:16:24,1706
2474,16-03-2021_08:16:24,2319
2475,16-03-2021_08:16:24,1949
2476,16-03-2021_08:16:24,1942
2477,16-03-2021_08:16:24,2293
2478,16-03-2021_08:16:24,1712
2479,16-03-2021_08:16:24,2311
2480,16-03-2021_08:16:24,1930
2481,16-03-2021_08:16:24,1937
2482,16-03-2021_08:16:24,2288
2483,16-03-2021_08:16:24,1718
2484,16-03-2021_08:16:24,2324
2485,16-03-2021_08:16:24,1958
2486,16-03-2021_08:16:24,1951
2487,16-03-2021_08:16:24,2310
2488,16-03-2021_08:16:24,1713
2489,16-03-2021_08:16:24,2320
2490,16-03-2021_08:16:24,1938
2491,16-03-2021_08:16:24,1952
2492,16-03-2021_08:16:24,2321
2493,16-03-2021_08:16:24,1727
2494,16-03-2021_08:16:24,2337
2495,16-03-2021_08:16:24,1953
2496,16-03-2021_08:16:24,1958
2497,16-03-2021_08:16:24,2320
2498,16-03-2021_08:16:25,1726
2499,16-03-2021_08:16:25,2350
2500,16-03-2021_08:16:25,1957
2501,16-03-2021_08:16:25,1967
2502,16-03-2021_08:16:25,2323
2503,16-03-2021_08:16:25,1739
2504,16-03-2021_08:16:25,2351
2505,16-03-2021_08:16:25,1963
2506,16-03-2021_08:16:25,1978
2507,16-03-2021_08:16:25,2343
2508,16-03-2021_08:16:25,1739
2509,16-03-2021_08:16:25,2337
2510,16-03-2021_08:16:25,1975
2511,16-03-2021_08:16:25,1994
2512,16-03-2021_08:16:25,2320
2513,16-03-2021_08:16:25,1730
2514,16-03-2021_08:16:25,2353
2515,16-03-2021_08:16:25,1968
2516,16-03-2021_08:16:25,1975
2517,16-03-2021_08:16:25,2327
2518,16-03-2021_08:16:25,1630
2519,16-03-2021_08:16:25,2238
2520,16-03-2021_08:16:25,2162
2521,16-03-2021_08:16:25,3012
2522,16-03-2021_08:16:25,4095
2523,16-03-2021_08:16:25,2800
2524,16-03-2021_08:16:25,2601
2525,16-03-2021_08:16:25,1878
2526,16-03-2021_08:16:25,1860
2527,16-03-2021_08:16:25,2171
2528,16-03-2021_08:16:25,1546
2529,16-03-2021_08:16:25,2160
2530,16-03-2021_08:16:25,1754
2531,16-03-2021_08:16:25,1770
2532,16-03-2021_08:16:25,2126
2533,16-03-2021_08:16:25,1517
2534,16-03-2021_08:16:25,2167
2535,16-03-2021_08:16:25,1765
2536,16-03-2021_08:16:25,1773
2537,16-03-2021_08:16:25,2123
2538,16-03-2021_08:16:25,1527
2539,16-03-2021_08:16:25,2141
2540,16-03-2021_08:16:25,1747
2541,16-03-2021_08:16:25,1761
2542,16-03-2021_08:16:25,2130
2543,16-03-2021_08:16:25,1557
2544,16-03-2021_08:16:25,2183
2545,16-03-2021_08:16:25,1819
2546,16-03-2021_08:16:25,1857
2547,16-03-2021_08:16:25,2251
2548,16-03-2021_08:16:25,1697
2549,16-03-2021_08:16:25,2291
2550,16-03-2021_08:16:25,1890
2551,16-03-2021_08:16:25,1858
2552,16-03-2021_08:16:25,2187
2553,16-03-2021_08:16:25,1584
2554,16-03-2021_08:16:25,2199
2555,16-03-2021_08:16:25,1795
2556,16-03-2021_08:16:25,1795
2557,16-03-2021_08:16:25,2156
2558,16-03-2021_08:16:25,1562
2559,16-03-2021_08:16:25,2177
2560,16-03-2021_08:16:25,1776
2561,16-03-2021_08:16:25,1787
2562,16-03-2021_08:16:25,2160
2563,16-03-2021_08:16:25,1574
2564,16-03-2021_08:16:25,2191
2565,16-03-2021_08:16:25,1804
2566,16-03-2021_08:16:25,1822
2567,16-03-2021_08:16:25,2192
2568,16-03-2021_08:16:25,1599
2569,16-03-2021_08:16:25,2215
2570,16-03-2021_08:16:25,1830
2571,16-03-2021_08:16:25,1844
2572,16-03-2021_08:16:25,2212
2573,16-03-2021_08:16:25,1616
2574,16-03-2021_08:16:25,2233
2575,16-03-2021_08:16:25,1844
2576,16-03-2021_08:16:25,1857
2577,16-03-2021_08:16:25,2214
2578,16-03-2021_08:16:25,1622
2579,16-03-2021_08:16:25,2255
2580,16-03-2021_08:16:25,1843
2581,16-03-2021_08:16:25,1859
2582,16-03-2021_08:16:25,2210
2583,16-03-2021_08:16:25,1619
2584,16-03-2021_08:16:25,2239
2585,16-03-2021_08:16:25,1840
2586,16-03-2021_08:16:25,1853
2587,16-03-2021_08:16:25,2214
2588,16-03-2021_08:16:25,1619
2589,16-03-2021_08:16:25,2238
2590,16-03-2021_08:16:25,1839
2591,16-03-2021_08:16:25,1853
2592,16-03-2021_08:16:25,2218
2593,16-03-2021_08:16:25,1639
2594,16-03-2021_08:16:25,2258
2595,16-03-2021_08:16:25,1867
2596,16-03-2021_08:16:25,1865
2597,16-03-2021_08:16:25,2222
2598,16-03-2021_08:16:25,1655
2599,16-03-2021_08:16:26,2243
2600,16-03-2021_08:16:26,1856
2601,16-03-2021_08:16:26,1867
2602,16-03-2021_08:16:26,2250
2603,16-03-2021_08:16:26,1666
2604,16-03-2021_08:16:26,2249
2605,16-03-2021_08:16:26,1845
2606,16-03-2021_08:16:26,1877
2607,16-03-2021_08:16:26,2222
2608,16-03-2021_08:16:26,1648
2609,16-03-2021_08:16:26,2256
2610,16-03-2021_08:16:26,1733
2611,16-03-2021_08:16:26,1818
2612,16-03-2021_08:16:26,2557
2613,16-03-2021_08:16:26,2897
2614,16-03-2021_08:16:26,4095
2615,16-03-2021_08:16:26,2606
2616,16-03-2021_08:16:26,1999
2617,16-03-2021_08:16:26,2119
2618,16-03-2021_08:16:26,1499
2619,16-03-2021_08:16:26,2103
2620,16-03-2021_08:16:26,1687
2621,16-03-2021_08:16:26,1711
2622,16-03-2021_08:16:26,2076
2623,16-03-2021_08:16:26,1472
2624,16-03-2021_08:16:26,2112
2625,16-03-2021_08:16:26,1721
2626,16-03-2021_08:16:26,1766
2627,16-03-2021_08:16:26,2130
2628,16-03-2021_08:16:26,1505
2629,16-03-2021_08:16:26,2159
2630,16-03-2021_08:16:26,1728
2631,16-03-2021_08:16:26,1761
2632,16-03-2021_08:16:26,2121
2633,16-03-2021_08:16:26,1523
2634,16-03-2021_08:16:26,2171
2635,16-03-2021_08:16:26,1775
2636,16-03-2021_08:16:26,1827
2637,16-03-2021_08:16:26,2207
2638,16-03-2021_08:16:26,1649
2639,16-03-2021_08:16:26,2316
2640,16-03-2021_08:16:26,1935
2641,16-03-2021_08:16:26,1950
2642,16-03-2021_08:16:26,2286
2643,16-03-2021_08:16:26,1679
2644,16-03-2021_08:16:26,2288
2645,16-03-2021_08:16:26,1863
2646,16-03-2021_08:16:26,1877
2647,16-03-2021_08:16:26,2229
2648,16-03-2021_08:16:26,1646
2649,16-03-2021_08:16:26,2263
2650,16-03-2021_08:16:26,1859
2651,16-03-2021_08:16:26,1877
2652,16-03-2021_08:16:26,2239
2653,16-03-2021_08:16:26,1642
2654,16-03-2021_08:16:26,2263
2655,16-03-2021_08:16:26,1856
2656,16-03-2021_08:16:26,1872
2657,16-03-2021_08:16:26,2226
2658,16-03-2021_08:16:26,1643
2659,16-03-2021_08:16:26,2266
2660,16-03-2021_08:16:26,1875
2661,16-03-2021_08:16:26,1907
2662,16-03-2021_08:16:26,2238
2663,16-03-2021_08:16:26,1632
2664,16-03-2021_08:16:26,2279
2665,16-03-2021_08:16:26,1872
2666,16-03-2021_08:16:26,1892
2667,16-03-2021_08:16:26,2239
2668,16-03-2021_08:16:26,1655
2669,16-03-2021_08:16:26,2281
2670,16-03-2021_08:16:26,1866
2671,16-03-2021_08:16:26,1904
2672,16-03-2021_08:16:26,2258
2673,16-03-2021_08:16:26,1668
2674,16-03-2021_08:16:26,2288
2675,16-03-2021_08:16:26,1873
2676,16-03-2021_08:16:26,1911
2677,16-03-2021_08:16:26,2246
2678,16-03-2021_08:16:26,1650
2679,16-03-2021_08:16:26,2282
2680,16-03-2021_08:16:26,1850
2681,16-03-2021_08:16:26,1881
2682,16-03-2021_08:16:26,2234
2683,16-03-2021_08:16:26,1638
2684,16-03-2021_08:16:26,2287
2685,16-03-2021_08:16:26,1873
2686,16-03-2021_08:16:26,1905
2687,16-03-2021_08:16:26,2271
2688,16-03-2021_08:16:26,1668
2689,16-03-2021_08:16:26,2304
2690,16-03-2021_08:16:26,1904
2691,16-03-2021_08:16:26,1925
2692,16-03-2021_08:16:26,2261
2693,16-03-2021_08:16:26,1690
2694,16-03-2021_08:16:26,2345
2695,16-03-2021_08:16:26,1920
2696,16-03-2021_08:16:26,1918
2697,16-03-2021_08:16:26,2247
2698,16-03-2021_08:16:27,1659
2699,16-03-2021_08:16:27,2300
2700,16-03-2021_08:16:27,1874
2701,16-03-2021_08:16:27,1902
2702,16-03-2021_08:16:27,2111
2703,16-03-2021_08:16:27,1609
2704,16-03-2021_08:16:27,2647
2705,16-03-2021_08:16:27,3187
2706,16-03-2021_08:16:27,3905
2707,16-03-2021_08:16:27,2913
2708,16-03-2021_08:16:27,1769
2709,16-03-2021_08:16:27,2191
2710,16-03-2021_08:16:27,1745
2711,16-03-2021_08:16:27,1759
2712,16-03-2021_08:16:27,2080
2713,16-03-2021_08:16:27,1489
2714,16-03-2021_08:16:27,2135
2715,16-03-2021_08:16:27,1727
2716,16-03-2021_08:16:27,1770
2717,16-03-2021_08:16:27,2127
2718,16-03-2021_08:16:27,1535
2719,16-03-2021_08:16:27,2190
2720,16-03-2021_08:16:27,1772
2721,16-03-2021_08:16:27,1808
2722,16-03-2021_08:16:27,2151
2723,16-03-2021_08:16:27,1562
2724,16-03-2021_08:16:27,2190
2725,16-03-2021_08:16:27,1769
2726,16-03-2021_08:16:27,1824
2727,16-03-2021_08:16:27,2191
2728,16-03-2021_08:16:27,1619
2729,16-03-2021_08:16:27,2286
2730,16-03-2021_08:16:27,1914
2731,16-03-2021_08:16:27,1975
2732,16-03-2021_08:16:27,2334
2733,16-03-2021_08:16:27,1750
2734,16-03-2021_08:16:27,2364
2735,16-03-2021_08:16:27,1918
2736,16-03-2021_08:16:27,1945
2737,16-03-2021_08:16:27,2261
2738,16-03-2021_08:16:27,1666
2739,16-03-2021_08:16:27,2305
2740,16-03-2021_08:16:27,1883
2741,16-03-2021_08:16:27,1933
2742,16-03-2021_08:16:27,2270
2743,16-03-2021_08:16:27,1683
2744,16-03-2021_08:16:27,2320
2745,16-03-2021_08:16:27,1908
2746,16-03-2021_08:16:27,1942
2747,16-03-2021_08:16:27,2275
2748,16-03-2021_08:16:27,1695
2749,16-03-2021_08:16:27,2315
2750,16-03-2021_08:16:27,1879
2751,16-03-2021_08:16:27,1936
2752,16-03-2021_08:16:27,2266
2753,16-03-2021_08:16:27,1677
2754,16-03-2021_08:16:27,2306
2755,16-03-2021_08:16:27,1882
2756,16-03-2021_08:16:27,1937
2757,16-03-2021_08:16:27,2263
2758,16-03-2021_08:16:27,1677
2759,16-03-2021_08:16:27,2314
2760,16-03-2021_08:16:27,1907
2761,16-03-2021_08:16:27,1953
2762,16-03-2021_08:16:27,2294
2763,16-03-2021_08:16:27,1710
2764,16-03-2021_08:16:27,2358
2765,16-03-2021_08:16:27,1937
2766,16-03-2021_08:16:27,2005
2767,16-03-2021_08:16:27,2322
2768,16-03-2021_08:16:27,1729
2769,16-03-2021_08:16:27,2365
2770,16-03-2021_08:16:27,1931
2771,16-03-2021_08:16:27,1981
2772,16-03-2021_08:16:27,2310
2773,16-03-2021_08:16:27,1712
2774,16-03-2021_08:16:27,2359
2775,16-03-2021_08:16:27,1936
2776,16-03-2021_08:16:27,1978
2777,16-03-2021_08:16:27,2297
2778,16-03-2021_08:16:27,1715
2779,16-03-2021_08:16:27,2352
2780,16-03-2021_08:16:27,1910
2781,16-03-2021_08:16:27,1962
2782,16-03-2021_08:16:27,2294
2783,16-03-2021_08:16:27,1725
2784,16-03-2021_08:16:27,2343
2785,16-03-2021_08:16:27,1910
2786,16-03-2021_08:16:27,1982
2787,16-03-2021_08:16:27,2321
2788,16-03-2021_08:16:27,1717
2789,16-03-2021_08:16:27,2330
2790,16-03-2021_08:16:27,1905
2791,16-03-2021_08:16:27,1959
2792,16-03-2021_08:16:27,2282
2793,16-03-2021_08:16:27,1694
2794,16-03-2021_08:16:27,2250
2795,16-03-2021_08:16:27,1744
2796,16-03-2021_08:16:27,2025
2797,16-03-2021_08:16:27,3008
2798,16-03-2021_08:16:27,3596
2799,16-03-2021_08:16:28,3707
2800,16-03-2021_08:16:28,2210
2801,16-03-2021_08:16:28,1920
2802,16-03-2021_08:16:28,2128
2803,16-03-2021_08:16:28,1518
2804,16-03-2021_08:16:28,2135
2805,16-03-2021_08:16:28,1690
2806,16-03-2021_08:16:28,1745
2807,16-03-2021_08:16:28,2077
2808,16-03-2021_08:16:28,1488
2809,16-03-2021_08:16:28,2143
2810,16-03-2021_08:16:28,1699
2811,16-03-2021_08:16:28,1758
2812,16-03-2021_08:16:28,2085
2813,16-03-2021_08:16:28,1482
2814,16-03-2021_08:16:28,2128
2815,16-03-2021_08:16:28,1666
2816,16-03-2021_08:16:28,1727
2817,16-03-2021_08:16:28,2064
2818,16-03-2021_08:16:28,1487
2819,16-03-2021_08:16:28,2157
2820,16-03-2021_08:16:28,1739
2821,16-03-2021_08:16:28,1839
2822,16-03-2021_08:16:28,2197
2823,16-03-2021_08:16:28,1655
2824,16-03-2021_08:16:28,2333
2825,16-03-2021_08:16:28,1902
2826,16-03-2021_08:16:28,1943
2827,16-03-2021_08:16:28,2224
2828,16-03-2021_08:16:28,1611
2829,16-03-2021_08:16:28,2228
2830,16-03-2021_08:16:28,1786
2831,16-03-2021_08:16:28,1837
2832,16-03-2021_08:16:28,2162
2833,16-03-2021_08:16:28,1589
2834,16-03-2021_08:16:28,2224
2835,16-03-2021_08:16:28,1793
2836,16-03-2021_08:16:28,1872
2837,16-03-2021_08:16:28,2195
2838,16-03-2021_08:16:28,1648
2839,16-03-2021_08:16:28,2285
2840,16-03-2021_08:16:28,1846
2841,16-03-2021_08:16:28,1921
2842,16-03-2021_08:16:28,2239
2843,16-03-2021_08:16:28,1673
2844,16-03-2021_08:16:28,2334
2845,16-03-2021_08:16:28,1904
2846,16-03-2021_08:16:28,1973
2847,16-03-2021_08:16:28,2302
2848,16-03-2021_08:16:28,1715
2849,16-03-2021_08:16:28,2346
2850,16-03-2021_08:16:28,1885
2851,16-03-2021_08:16:28,1957
2852,16-03-2021_08:16:28,2287
2853,16-03-2021_08:16:28,1710
2854,16-03-2021_08:16:28,2348
2855,16-03-2021_08:16:28,1910
2856,16-03-2021_08:16:28,1985
2857,16-03-2021_08:16:28,2293
2858,16-03-2021_08:16:28,1712
2859,16-03-2021_08:16:28,2364
2860,16-03-2021_08:16:28,1905
2861,16-03-2021_08:16:28,1980
2862,16-03-2021_08:16:28,2300
2863,16-03-2021_08:16:28,1721
2864,16-03-2021_08:16:28,2354
2865,16-03-2021_08:16:28,1911
2866,16-03-2021_08:16:28,1999
2867,16-03-2021_08:16:28,2295
2868,16-03-2021_08:16:28,1730
2869,16-03-2021_08:16:28,2364
2870,16-03-2021_08:16:28,1923
2871,16-03-2021_08:16:28,1991
2872,16-03-2021_08:16:28,2303
2873,16-03-2021_08:16:28,1726
2874,16-03-2021_08:16:28,2357
2875,16-03-2021_08:16:28,1923
2876,16-03-2021_08:16:28,2023
2877,16-03-2021_08:16:28,2317
2878,16-03-2021_08:16:28,1737
2879,16-03-2021_08:16:28,2399
2880,16-03-2021_08:16:28,1956
2881,16-03-2021_08:16:28,2019
2882,16-03-2021_08:16:28,2276
2883,16-03-2021_08:16:28,1697
2884,16-03-2021_08:16:28,2343
2885,16-03-2021_08:16:28,1890
2886,16-03-2021_08:16:28,1965
2887,16-03-2021_08:16:28,2227
2888,16-03-2021_08:16:28,1567
2889,16-03-2021_08:16:28,2402
2890,16-03-2021_08:16:28,2543
2891,16-03-2021_08:16:28,3975
2892,16-03-2021_08:16:28,3787
2893,16-03-2021_08:16:28,2096
2894,16-03-2021_08:16:28,2356
2895,16-03-2021_08:16:28,1807
2896,16-03-2021_08:16:28,1872
2897,16-03-2021_08:16:28,2147
2898,16-03-2021_08:16:29,1561
2899,16-03-2021_08:16:29,2215
2900,16-03-2021_08:16:29,1751
2901,16-03-2021_08:16:29,1829
2902,16-03-2021_08:16:29,2132
2903,16-03-2021_08:16:29,1545
2904,16-03-2021_08:16:29,2180
2905,16-03-2021_08:16:29,1726
2906,16-03-2021_08:16:29,1817
2907,16-03-2021_08:16:29,2107
2908,16-03-2021_08:16:29,1515
2909,16-03-2021_08:16:29,2156
2910,16-03-2021_08:16:29,1690
2911,16-03-2021_08:16:29,1787
2912,16-03-2021_08:16:29,2109
2913,16-03-2021_08:16:29,1534
2914,16-03-2021_08:16:29,2210
2915,16-03-2021_08:16:29,1783
2916,16-03-2021_08:16:29,1911
2917,16-03-2021_08:16:29,2251
2918,16-03-2021_08:16:29,1711
2919,16-03-2021_08:16:29,2330
2920,16-03-2021_08:16:29,1835
2921,16-03-2021_08:16:29,1916
2922,16-03-2021_08:16:29,2184
2923,16-03-2021_08:16:29,1573
2924,16-03-2021_08:16:29,2234
2925,16-03-2021_08:16:29,1754
2926,16-03-2021_08:16:29,1847
2927,16-03-2021_08:16:29,2141
2928,16-03-2021_08:16:29,1575
2929,16-03-2021_08:16:29,2219
2930,16-03-2021_08:16:29,1767
2931,16-03-2021_08:16:29,1867
2932,16-03-2021_08:16:29,2164
2933,16-03-2021_08:16:29,1598
2934,16-03-2021_08:16:29,2245
2935,16-03-2021_08:16:29,1778
2936,16-03-2021_08:16:29,1882
2937,16-03-2021_08:16:29,2171
2938,16-03-2021_08:16:29,1594
2939,16-03-2021_08:16:29,2246
2940,16-03-2021_08:16:29,1794
2941,16-03-2021_08:16:29,1890
2942,16-03-2021_08:16:29,2167
2943,16-03-2021_08:16:29,1596
2944,16-03-2021_08:16:29,2240
2945,16-03-2021_08:16:29,1783
2946,16-03-2021_08:16:29,1895
2947,16-03-2021_08:16:29,2176
2948,16-03-2021_08:16:29,1616
2949,16-03-2021_08:16:29,2273
2950,16-03-2021_08:16:29,1821
2951,16-03-2021_08:16:29,1915
2952,16-03-2021_08:16:29,2204
2953,16-03-2021_08:16:29,1607
2954,16-03-2021_08:16:29,2251
2955,16-03-2021_08:16:29,1781
2956,16-03-2021_08:16:29,1873
2957,16-03-2021_08:16:29,2150
2958,16-03-2021_08:16:29,1579
2959,16-03-2021_08:16:29,2223
2960,16-03-2021_08:16:29,1743
2961,16-03-2021_08:16:29,1845
2962,16-03-2021_08:16:29,2112
2963,16-03-2021_08:16:29,1535
2964,16-03-2021_08:16:29,2205
2965,16-03-2021_08:16:29,1721
2966,16-03-2021_08:16:29,1851
2967,16-03-2021_08:16:29,2139
2968,16-03-2021_08:16:29,1551
2969,16-03-2021_08:16:29,2203
2970,16-03-2021_08:16:29,1746
2971,16-03-2021_08:16:29,1870
2972,16-03-2021_08:16:29,2139
2973,16-03-2021_08:16:29,1534
2974,16-03-2021_08:16:29,2210
2975,16-03-2021_08:16:29,1754
2976,16-03-2021_08:16:29,1881
2977,16-03-2021_08:16:29,2171
2978,16-03-2021_08:16:29,1553
2979,16-03-2021_08:16:29,2124
2980,16-03-2021_08:16:29,1857
2981,16-03-2021_08:16:29,2541
2982,16-03-2021_08:16:29,4092
2983,16-03-2021_08:16:29,3063
2984,16-03-2021_08:16:29,2749
2985,16-03-2021_08:16:29,1807
2986,16-03-2021_08:16:29,1795
2987,16-03-2021_08:16:29,2054
2988,16-03-2021_08:16:29,1453
2989,16-03-2021_08:16:29,2101
2990,16-03-2021_08:16:29,1601
2991,16-03-2021_08:16:29,1735
2992,16-03-2021_08:16:29,2011
2993,16-03-2021_08:16:29,1456
2994,16-03-2021_08:16:29,2128
2995,16-03-2021_08:16:29,1641
2996,16-03-2021_08:16:29,1782
2997,16-03-2021_08:16:29,2055
2998,16-03-2021_08:16:29,1483
2999,16-03-2021_08:16:30,2147
3000,16-03-2021_08:16:30,1654
3001,16-03-2021_08:16:30,1806
3002,16-03-2021_08:16:30,2076
3003,16-03-2021_08:16:30,1533
3004,16-03-2021_08:16:30,2227
3005,16-03-2021_08:16:30,1783
3006,16-03-2021_08:16:30,1954
3007,16-03-2021_08:16:30,2237
3008,16-03-2021_08:16:30,1729
3009,16-03-2021_08:16:30,2406
3010,16-03-2021_08:16:30,1898
3011,16-03-2021_08:16:30,2002
3012,16-03-2021_08:16:30,2234
3013,16-03-2021_08:16:30,1641
3014,16-03-2021_08:16:30,2288
3015,16-03-2021_08:16:30,1809
3016,16-03-2021_08:16:30,1952
3017,16-03-2021_08:16:30,2207
3018,16-03-2021_08:16:30,1651
3019,16-03-2021_08:16:30,2309
3020,16-03-2021_08:16:30,1834
3021,16-03-2021_08:16:30,1967
3022,16-03-2021_08:16:30,2224
3023,16-03-2021_08:16:30,1680
3024,16-03-2021_08:16:30,2349
3025,16-03-2021_08:16:30,1871
3026,16-03-2021_08:16:30,2020
3027,16-03-2021_08:16:30,2274
3028,16-03-2021_08:16:30,1739
3029,16-03-2021_08:16:30,2383
3030,16-03-2021_08:16:30,1893
3031,16-03-2021_08:16:30,2064
3032,16-03-2021_08:16:30,2299
3033,16-03-2021_08:16:30,1756
3034,16-03-2021_08:16:30,2415
3035,16-03-2021_08:16:30,1933
3036,16-03-2021_08:16:30,2086
3037,16-03-2021_08:16:30,2311
3038,16-03-2021_08:16:30,1771
3039,16-03-2021_08:16:30,2422
3040,16-03-2021_08:16:30,1904
3041,16-03-2021_08:16:30,2059
3042,16-03-2021_08:16:30,2297
3043,16-03-2021_08:16:30,1749
3044,16-03-2021_08:16:30,2402
3045,16-03-2021_08:16:30,1910
3046,16-03-2021_08:16:30,2058
3047,16-03-2021_08:16:30,2288
3048,16-03-2021_08:16:30,1735
3049,16-03-2021_08:16:30,2393
3050,16-03-2021_08:16:30,1883
3051,16-03-2021_08:16:30,2038
3052,16-03-2021_08:16:30,2271
3053,16-03-2021_08:16:30,1719
3054,16-03-2021_08:16:30,2368
3055,16-03-2021_08:16:30,1866
3056,16-03-2021_08:16:30,2022
3057,16-03-2021_08:16:30,2246
3058,16-03-2021_08:16:30,1723
3059,16-03-2021_08:16:30,2366
3060,16-03-2021_08:16:30,1869
3061,16-03-2021_08:16:30,2065
3062,16-03-2021_08:16:30,2300
3063,16-03-2021_08:16:30,1744
3064,16-03-2021_08:16:30,2377
3065,16-03-2021_08:16:30,1862
3066,16-03-2021_08:16:30,2043
3067,16-03-2021_08:16:30,2255
3068,16-03-2021_08:16:30,1713
3069,16-03-2021_08:16:30,2277
3070,16-03-2021_08:16:30,1719
3071,16-03-2021_08:16:30,2178
3072,16-03-2021_08:16:30,3143
3073,16-03-2021_08:16:30,3811
3074,16-03-2021_08:16:30,3525
3075,16-03-2021_08:16:30,2112
3076,16-03-2021_08:16:30,1968
3077,16-03-2021_08:16:30,2097
3078,16-03-2021_08:16:30,1531
3079,16-03-2021_08:16:30,2177
3080,16-03-2021_08:16:30,1659
3081,16-03-2021_08:16:30,1838
3082,16-03-2021_08:16:30,2061
3083,16-03-2021_08:16:30,1554
3084,16-03-2021_08:16:30,2224
3085,16-03-2021_08:16:30,1712
3086,16-03-2021_08:16:30,1904
3087,16-03-2021_08:16:30,2128
3088,16-03-2021_08:16:30,1600
3089,16-03-2021_08:16:30,2258
3090,16-03-2021_08:16:30,1728
3091,16-03-2021_08:16:30,1918
3092,16-03-2021_08:16:30,2139
3093,16-03-2021_08:16:30,1617
3094,16-03-2021_08:16:30,2283
3095,16-03-2021_08:16:30,1806
3096,16-03-2021_08:16:30,2011
3097,16-03-2021_08:16:30,2256
3098,16-03-2021_08:16:31,1783
3099,16-03-2021_08:16:31,2503
3100,16-03-2021_08:16:31,2011
3101,16-03-2021_08:16:31,2217
3102,16-03-2021_08:16:31,2466
3103,16-03-2021_08:16:31,1998
3104,16-03-2021_08:16:31,2672
3105,16-03-2021_08:16:31,2148
3106,16-03-2021_08:16:31,2363
3107,16-03-2021_08:16:31,2576
3108,16-03-2021_08:16:31,2064
3109,16-03-2021_08:16:31,2735
3110,16-03-2021_08:16:31,2190
3111,16-03-2021_08:16:31,2397
3112,16-03-2021_08:16:31,2577
3113,16-03-2021_08:16:31,2066
3114,16-03-2021_08:16:31,2710
3115,16-03-2021_08:16:31,2179
3116,16-03-2021_08:16:31,2384
3117,16-03-2021_08:16:31,2543
3118,16-03-2021_08:16:31,2025
3119,16-03-2021_08:16:31,2682
3120,16-03-2021_08:16:31,2144
3121,16-03-2021_08:16:31,2352
3122,16-03-2021_08:16:31,2531
3123,16-03-2021_08:16:31,2000
3124,16-03-2021_08:16:31,2654
3125,16-03-2021_08:16:31,2107
3126,16-03-2021_08:16:31,2310
3127,16-03-2021_08:16:31,2478
3128,16-03-2021_08:16:31,1943
3129,16-03-2021_08:16:31,2592
3130,16-03-2021_08:16:31,2059
3131,16-03-2021_08:16:31,2266
3132,16-03-2021_08:16:31,2448
3133,16-03-2021_08:16:31,1923
3134,16-03-2021_08:16:31,2570
3135,16-03-2021_08:16:31,2013
3136,16-03-2021_08:16:31,2222
3137,16-03-2021_08:16:31,2393
3138,16-03-2021_08:16:31,1866
3139,16-03-2021_08:16:31,2496
3140,16-03-2021_08:16:31,1943
3141,16-03-2021_08:16:31,2162
3142,16-03-2021_08:16:31,2330
3143,16-03-2021_08:16:31,1808
3144,16-03-2021_08:16:31,2434
3145,16-03-2021_08:16:31,1888
3146,16-03-2021_08:16:31,2112
3147,16-03-2021_08:16:31,2291
3148,16-03-2021_08:16:31,1763
3149,16-03-2021_08:16:31,2394
3150,16-03-2021_08:16:31,1862
3151,16-03-2021_08:16:31,2087
3152,16-03-2021_08:16:31,2240
3153,16-03-2021_08:16:31,1694
3154,16-03-2021_08:16:31,2319
3155,16-03-2021_08:16:31,1777
3156,16-03-2021_08:16:31,1990
3157,16-03-2021_08:16:31,2153
3158,16-03-2021_08:16:31,1609
3159,16-03-2021_08:16:31,2142
3160,16-03-2021_08:16:31,1693
3161,16-03-2021_08:16:31,2354
3162,16-03-2021_08:16:31,3602
3163,16-03-2021_08:16:31,3443
3164,16-03-2021_08:16:31,2859
3165,16-03-2021_08:16:31,1776
3166,16-03-2021_08:16:31,1842
3167,16-03-2021_08:16:31,1958
3168,16-03-2021_08:16:31,1425
3169,16-03-2021_08:16:31,2075
3170,16-03-2021_08:16:31,1520
3171,16-03-2021_08:16:31,1767
3172,16-03-2021_08:16:31,1926
3173,16-03-2021_08:16:31,1422
3174,16-03-2021_08:16:31,2096
3175,16-03-2021_08:16:31,1535
3176,16-03-2021_08:16:31,1786
3177,16-03-2021_08:16:31,1929
3178,16-03-2021_08:16:31,1424
3179,16-03-2021_08:16:31,2095
3180,16-03-2021_08:16:31,1519
3181,16-03-2021_08:16:31,1776
3182,16-03-2021_08:16:31,1915
3183,16-03-2021_08:16:31,1438
3184,16-03-2021_08:16:31,2123
3185,16-03-2021_08:16:31,1584
3186,16-03-2021_08:16:31,1856
3187,16-03-2021_08:16:31,2054
3188,16-03-2021_08:16:31,1575
3189,16-03-2021_08:16:31,2265
3190,16-03-2021_08:16:31,1705
3191,16-03-2021_08:16:31,1769
3192,16-03-2021_08:16:31,1751
3193,16-03-2021_08:16:31,1177
3194,16-03-2021_08:16:31,1810
3195,16-03-2021_08:16:31,1197
3196,16-03-2021_08:16:31,1469
3197,16-03-2021_08:16:31,1590
3198,16-03-2021_08:16:31,1105
3199,16-03-2021_08:16:32,1773
3200,16-03-2021_08:16:32,1161
3201,16-03-2021_08:16:32,1459
3202,16-03-2021_08:16:32,1591
3203,16-03-2021_08:16:32,1107
3204,16-03-2021_08:16:32,1799
3205,16-03-2021_08:16:32,1230
3206,16-03-2021_08:16:32,1529
3207,16-03-2021_08:16:32,1663
3208,16-03-2021_08:16:32,1171
3209,16-03-2021_08:16:32,1856
3210,16-03-2021_08:16:32,1281
3211,16-03-2021_08:16:32,1597
3212,16-03-2021_08:16:32,1717
3213,16-03-2021_08:16:32,1261
3214,16-03-2021_08:16:32,1942
3215,16-03-2021_08:16:32,1364
3216,16-03-2021_08:16:32,1679
3217,16-03-2021_08:16:32,1795
3218,16-03-2021_08:16:32,1321
3219,16-03-2021_08:16:32,1991
3220,16-03-2021_08:16:32,1423
3221,16-03-2021_08:16:32,1719
3222,16-03-2021_08:16:32,1845
3223,16-03-2021_08:16:32,1375
3224,16-03-2021_08:16:32,2064
3225,16-03-2021_08:16:32,1488
3226,16-03-2021_08:16:32,1781
3227,16-03-2021_08:16:32,1914
3228,16-03-2021_08:16:32,1455
3229,16-03-2021_08:16:32,2129
3230,16-03-2021_08:16:32,1565
3231,16-03-2021_08:16:32,1850
3232,16-03-2021_08:16:32,1979
3233,16-03-2021_08:16:32,1509
3234,16-03-2021_08:16:32,2198
3235,16-03-2021_08:16:32,1610
3236,16-03-2021_08:16:32,1871
3237,16-03-2021_08:16:32,1955
3238,16-03-2021_08:16:32,1495
3239,16-03-2021_08:16:32,2162
3240,16-03-2021_08:16:32,1559
3241,16-03-2021_08:16:32,1819
3242,16-03-2021_08:16:32,1931
3243,16-03-2021_08:16:32,1453
3244,16-03-2021_08:16:32,2113
3245,16-03-2021_08:16:32,1507
3246,16-03-2021_08:16:32,1701
3247,16-03-2021_08:16:32,1782
3248,16-03-2021_08:16:32,1616
3249,16-03-2021_08:16:32,3034
3250,16-03-2021_08:16:32,3355
3251,16-03-2021_08:16:32,2751
3252,16-03-2021_08:16:32,2158
3253,16-03-2021_08:16:32,1357
3254,16-03-2021_08:16:32,1952
3255,16-03-2021_08:16:32,1392
3256,16-03-2021_08:16:32,1731
3257,16-03-2021_08:16:32,1829
3258,16-03-2021_08:16:32,1390
3259,16-03-2021_08:16:32,2096
3260,16-03-2021_08:16:32,1513
3261,16-03-2021_08:16:32,1845
3262,16-03-2021_08:16:32,1951
3263,16-03-2021_08:16:32,1504
3264,16-03-2021_08:16:32,2181
3265,16-03-2021_08:16:32,1604
3266,16-03-2021_08:16:32,1933
3267,16-03-2021_08:16:32,2032
3268,16-03-2021_08:16:32,1584
3269,16-03-2021_08:16:32,2260
3270,16-03-2021_08:16:32,1680
3271,16-03-2021_08:16:32,2023
3272,16-03-2021_08:16:32,2119
3273,16-03-2021_08:16:32,1708
3274,16-03-2021_08:16:32,2397
3275,16-03-2021_08:16:32,1845
3276,16-03-2021_08:16:32,2215
3277,16-03-2021_08:16:32,2290
3278,16-03-2021_08:16:32,1810
3279,16-03-2021_08:16:32,2438
3280,16-03-2021_08:16:32,1822
3281,16-03-2021_08:16:32,2127
3282,16-03-2021_08:16:32,2191
3283,16-03-2021_08:16:32,1739
3284,16-03-2021_08:16:32,2386
3285,16-03-2021_08:16:32,1807
3286,16-03-2021_08:16:32,2138
3287,16-03-2021_08:16:32,2195
3288,16-03-2021_08:16:32,1743
3289,16-03-2021_08:16:32,2406
3290,16-03-2021_08:16:32,1814
3291,16-03-2021_08:16:32,2160
3292,16-03-2021_08:16:32,2227
3293,16-03-2021_08:16:32,1786
3294,16-03-2021_08:16:32,2448
3295,16-03-2021_08:16:32,1867
3296,16-03-2021_08:16:32,2226
3297,16-03-2021_08:16:32,2289
3298,16-03-2021_08:16:33,1855
3299,16-03-2021_08:16:33,2500
3300,16-03-2021_08:16:33,1922
3301,16-03-2021_08:16:33,2284
3302,16-03-2021_08:16:33,2334
3303,16-03-2021_08:16:33,1907
3304,16-03-2021_08:16:33,2573
3305,16-03-2021_08:16:33,1962
3306,16-03-2021_08:16:33,2307
3307,16-03-2021_08:16:33,2374
3308,16-03-2021_08:16:33,1942
3309,16-03-2021_08:16:33,2587
3310,16-03-2021_08:16:33,1981
3311,16-03-2021_08:16:33,2331
3312,16-03-2021_08:16:33,2357
3313,16-03-2021_08:16:33,1937
3314,16-03-2021_08:16:33,2593
3315,16-03-2021_08:16:33,1983
3316,16-03-2021_08:16:33,2334
3317,16-03-2021_08:16:33,2353
3318,16-03-2021_08:16:33,1937
3319,16-03-2021_08:16:33,2576
3320,16-03-2021_08:16:33,1971
3321,16-03-2021_08:16:33,2326
3322,16-03-2021_08:16:33,2353
3323,16-03-2021_08:16:33,1920
3324,16-03-2021_08:16:33,2542
3325,16-03-2021_08:16:33,1923
3326,16-03-2021_08:16:33,2304
3327,16-03-2021_08:16:33,2346
3328,16-03-2021_08:16:33,1922
3329,16-03-2021_08:16:33,2523
3330,16-03-2021_08:16:33,1911
3331,16-03-2021_08:16:33,2265
3332,16-03-2021_08:16:33,2282
3333,16-03-2021_08:16:33,1867
3334,16-03-2021_08:16:33,2456
3335,16-03-2021_08:16:33,1738
3336,16-03-2021_08:16:33,2295
3337,16-03-2021_08:16:33,2960
3338,16-03-2021_08:16:33,3985
3339,16-03-2021_08:16:33,4095
3340,16-03-2021_08:16:33,2773
3341,16-03-2021_08:16:33,2559
3342,16-03-2021_08:16:33,2457
3343,16-03-2021_08:16:33,2054
3344,16-03-2021_08:16:33,2663
3345,16-03-2021_08:16:33,2041
3346,16-03-2021_08:16:33,2427
3347,16-03-2021_08:16:33,2425
3348,16-03-2021_08:16:33,2031
3349,16-03-2021_08:16:33,2658
3350,16-03-2021_08:16:33,2026
3351,16-03-2021_08:16:33,2400
3352,16-03-2021_08:16:33,2394
3353,16-03-2021_08:16:33,1993
3354,16-03-2021_08:16:33,2618
3355,16-03-2021_08:16:33,1978
3356,16-03-2021_08:16:33,2347
3357,16-03-2021_08:16:33,2346
3358,16-03-2021_08:16:33,1948
3359,16-03-2021_08:16:33,2592
3360,16-03-2021_08:16:33,1978
3361,16-03-2021_08:16:33,2368
3362,16-03-2021_08:16:33,2379
3363,16-03-2021_08:16:33,2006
3364,16-03-2021_08:16:33,2671
3365,16-03-2021_08:16:33,2052
3366,16-03-2021_08:16:33,2412
3367,16-03-2021_08:16:33,2352
3368,16-03-2021_08:16:33,1919
3369,16-03-2021_08:16:33,2525
3370,16-03-2021_08:16:33,1874
3371,16-03-2021_08:16:33,2240
3372,16-03-2021_08:16:33,2224
3373,16-03-2021_08:16:33,1835
3374,16-03-2021_08:16:33,2451
3375,16-03-2021_08:16:33,1835
3376,16-03-2021_08:16:33,2226
3377,16-03-2021_08:16:33,2186
3378,16-03-2021_08:16:33,1785
3379,16-03-2021_08:16:33,2384
3380,16-03-2021_08:16:33,1774
3381,16-03-2021_08:16:33,2162
3382,16-03-2021_08:16:33,2128
3383,16-03-2021_08:16:33,1733
3384,16-03-2021_08:16:33,2354
3385,16-03-2021_08:16:33,1722
3386,16-03-2021_08:16:33,2112
3387,16-03-2021_08:16:33,2087
3388,16-03-2021_08:16:33,1693
3389,16-03-2021_08:16:33,2326
3390,16-03-2021_08:16:33,1703
3391,16-03-2021_08:16:33,2102
3392,16-03-2021_08:16:33,2063
3393,16-03-2021_08:16:33,1697
3394,16-03-2021_08:16:33,2319
3395,16-03-2021_08:16:33,1698
3396,16-03-2021_08:16:33,2112
3397,16-03-2021_08:16:33,2077
3398,16-03-2021_08:16:33,1689
3399,16-03-2021_08:16:34,2304
3400,16-03-2021_08:16:34,1673
3401,16-03-2021_08:16:34,2081
3402,16-03-2021_08:16:34,2035
3403,16-03-2021_08:16:34,1665
3404,16-03-2021_08:16:34,2288
3405,16-03-2021_08:16:34,1651
3406,16-03-2021_08:16:34,2076
3407,16-03-2021_08:16:34,2031
3408,16-03-2021_08:16:34,1657
3409,16-03-2021_08:16:34,2279
3410,16-03-2021_08:16:34,1632
3411,16-03-2021_08:16:34,2063
3412,16-03-2021_08:16:34,2028
3413,16-03-2021_08:16:34,1658
3414,16-03-2021_08:16:34,2263
3415,16-03-2021_08:16:34,1631
3416,16-03-2021_08:16:34,2082
3417,16-03-2021_08:16:34,2028
3418,16-03-2021_08:16:34,1636
3419,16-03-2021_08:16:34,2229
3420,16-03-2021_08:16:34,1584
3421,16-03-2021_08:16:34,2015
3422,16-03-2021_08:16:34,1952
3423,16-03-2021_08:16:34,1584
3424,16-03-2021_08:16:34,2089
3425,16-03-2021_08:16:34,1498
3426,16-03-2021_08:16:34,2320
3427,16-03-2021_08:16:34,3213
3428,16-03-2021_08:16:34,3555
3429,16-03-2021_08:16:34,2917
3430,16-03-2021_08:16:34,1655
3431,16-03-2021_08:16:34,1677
3432,16-03-2021_08:16:34,1469
3433,16-03-2021_08:16:34,1041
3434,16-03-2021_08:16:34,1619
3435,16-03-2021_08:16:34,944
3436,16-03-2021_08:16:34,1412
3437,16-03-2021_08:16:34,1311
3438,16-03-2021_08:16:34,991
3439,16-03-2021_08:16:34,1632
3440,16-03-2021_08:16:34,967
3441,16-03-2021_08:16:34,1439
3442,16-03-2021_08:16:34,1345
3443,16-03-2021_08:16:34,1008
3444,16-03-2021_08:16:34,1639
3445,16-03-2021_08:16:34,963
3446,16-03-2021_08:16:34,1452
3447,16-03-2021_08:16:34,1377
3448,16-03-2021_08:16:34,1086
3449,16-03-2021_08:16:34,1758
3450,16-03-2021_08:16:34,1144
3451,16-03-2021_08:16:34,1664
3452,16-03-2021_08:16:34,1621
3453,16-03-2021_08:16:34,1351
3454,16-03-2021_08:16:34,2000
3455,16-03-2021_08:16:34,1343
3456,16-03-2021_08:16:34,1797
3457,16-03-2021_08:16:34,1679
3458,16-03-2021_08:16:34,1323
3459,16-03-2021_08:16:34,1936
3460,16-03-2021_08:16:34,1283
3461,16-03-2021_08:16:34,1753
3462,16-03-2021_08:16:34,1658
3463,16-03-2021_08:16:34,1345
3464,16-03-2021_08:16:34,1989
3465,16-03-2021_08:16:34,1334
3466,16-03-2021_08:16:34,1825
3467,16-03-2021_08:16:34,1725
3468,16-03-2021_08:16:34,1418
3469,16-03-2021_08:16:34,2053
3470,16-03-2021_08:16:34,1407
3471,16-03-2021_08:16:34,1894
3472,16-03-2021_08:16:34,1803
3473,16-03-2021_08:16:34,1489
3474,16-03-2021_08:16:34,2121
3475,16-03-2021_08:16:34,1471
3476,16-03-2021_08:16:34,1962
3477,16-03-2021_08:16:34,1873
3478,16-03-2021_08:16:34,1567
3479,16-03-2021_08:16:34,2195
3480,16-03-2021_08:16:34,1557
3481,16-03-2021_08:16:34,2033
3482,16-03-2021_08:16:34,1919
3483,16-03-2021_08:16:34,1602
3484,16-03-2021_08:16:34,2236
3485,16-03-2021_08:16:34,1596
3486,16-03-2021_08:16:34,2080
3487,16-03-2021_08:16:34,1977
3488,16-03-2021_08:16:34,1691
3489,16-03-2021_08:16:34,2293
3490,16-03-2021_08:16:34,1650
3491,16-03-2021_08:16:34,2128
3492,16-03-2021_08:16:34,2016
3493,16-03-2021_08:16:34,1726
3494,16-03-2021_08:16:34,2325
3495,16-03-2021_08:16:34,1674
3496,16-03-2021_08:16:34,2176
3497,16-03-2021_08:16:34,2071
3498,16-03-2021_08:16:35,1778
3499,16-03-2021_08:16:35,2391
3500,16-03-2021_08:16:35,1766
3501,16-03-2021_08:16:35,2257
3502,16-03-2021_08:16:35,2120
3503,16-03-2021_08:16:35,1826
3504,16-03-2021_08:16:35,2442
3505,16-03-2021_08:16:35,1802
3506,16-03-2021_08:16:35,2279
3507,16-03-2021_08:16:35,2099
3508,16-03-2021_08:16:35,1818
3509,16-03-2021_08:16:35,2413
3510,16-03-2021_08:16:35,1773
3511,16-03-2021_08:16:35,2281
3512,16-03-2021_08:16:35,2078
3513,16-03-2021_08:16:35,1698
3514,16-03-2021_08:16:35,2512
3515,16-03-2021_08:16:35,2452
3516,16-03-2021_08:16:35,4095
3517,16-03-2021_08:16:35,3605
3518,16-03-2021_08:16:35,2275
3519,16-03-2021_08:16:35,2439
3520,16-03-2021_08:16:35,1680
3521,16-03-2021_08:16:35,2160
3522,16-03-2021_08:16:35,1990
3523,16-03-2021_08:16:35,1714
3524,16-03-2021_08:16:35,2303
3525,16-03-2021_08:16:35,1648
3526,16-03-2021_08:16:35,2166
3527,16-03-2021_08:16:35,2022
3528,16-03-2021_08:16:35,1755
3529,16-03-2021_08:16:35,2346
3530,16-03-2021_08:16:35,1695
3531,16-03-2021_08:16:35,2199
3532,16-03-2021_08:16:35,2042
3533,16-03-2021_08:16:35,1792
3534,16-03-2021_08:16:35,2370
3535,16-03-2021_08:16:35,1714
3536,16-03-2021_08:16:35,2224
3537,16-03-2021_08:16:35,2085
3538,16-03-2021_08:16:35,1840
3539,16-03-2021_08:16:35,2430
3540,16-03-2021_08:16:35,1819
3541,16-03-2021_08:16:35,2359
3542,16-03-2021_08:16:35,2221
3543,16-03-2021_08:16:35,1979
3544,16-03-2021_08:16:35,2527
3545,16-03-2021_08:16:35,1840
3546,16-03-2021_08:16:35,2320
3547,16-03-2021_08:16:35,2114
3548,16-03-2021_08:16:35,1840
3549,16-03-2021_08:16:35,2399
3550,16-03-2021_08:16:35,1753
3551,16-03-2021_08:16:35,2275
3552,16-03-2021_08:16:35,2112
3553,16-03-2021_08:16:35,1889
3554,16-03-2021_08:16:35,2567
3555,16-03-2021_08:16:35,2002
3556,16-03-2021_08:16:35,2591
3557,16-03-2021_08:16:35,2426
3558,16-03-2021_08:16:35,2243
3559,16-03-2021_08:16:35,2817
3560,16-03-2021_08:16:35,2166
3561,16-03-2021_08:16:35,2730
3562,16-03-2021_08:16:35,2521
3563,16-03-2021_08:16:35,2301
3564,16-03-2021_08:16:35,2862
3565,16-03-2021_08:16:35,2183
3566,16-03-2021_08:16:35,2729
3567,16-03-2021_08:16:35,2501
3568,16-03-2021_08:16:35,2270
3569,16-03-2021_08:16:35,2814
3570,16-03-2021_08:16:35,2138
3571,16-03-2021_08:16:35,2683
3572,16-03-2021_08:16:35,2450
3573,16-03-2021_08:16:35,2217
3574,16-03-2021_08:16:35,2763
3575,16-03-2021_08:16:35,2089
3576,16-03-2021_08:16:35,2604
3577,16-03-2021_08:16:35,2385
3578,16-03-2021_08:16:35,2145
3579,16-03-2021_08:16:35,2683
3580,16-03-2021_08:16:35,2016
3581,16-03-2021_08:16:35,2532
3582,16-03-2021_08:16:35,2307
3583,16-03-2021_08:16:35,2103
3584,16-03-2021_08:16:35,2638
3585,16-03-2021_08:16:35,1967
3586,16-03-2021_08:16:35,2502
3587,16-03-2021_08:16:35,2260
3588,16-03-2021_08:16:35,2053
3589,16-03-2021_08:16:35,2573
3590,16-03-2021_08:16:35,1904
3591,16-03-2021_08:16:35,2438
3592,16-03-2021_08:16:35,2227
3593,16-03-2021_08:16:35,1998
3594,16-03-2021_08:16:35,2505
3595,16-03-2021_08:16:35,1861
3596,16-03-2021_08:16:35,2422
3597,16-03-2021_08:16:35,2188
3598,16-03-2021_08:16:35,1954
3599,16-03-2021_08:16:36,2450
3600,16-03-2021_08:16:36,1802
3601,16-03-2021_08:16:36,2352
3602,16-03-2021_08:16:36,2112
3603,16-03-2021_08:16:36,1895
3604,16-03-2021_08:16:36,2312
3605,16-03-2021_08:16:36,1635
3606,16-03-2021_08:16:36,2494
3607,16-03-2021_08:16:36,3066
3608,16-03-2021_08:16:36,4095
3609,16-03-2021_08:16:36,3390
3610,16-03-2021_08:16:36,1931
3611,16-03-2021_08:16:36,2195
3612,16-03-2021_08:16:36,1903
3613,16-03-2021_08:16:36,1680
3614,16-03-2021_08:16:36,2176
3615,16-03-2021_08:16:36,1515
3616,16-03-2021_08:16:36,2086
3617,16-03-2021_08:16:36,1841
3618,16-03-2021_08:16:36,1648
3619,16-03-2021_08:16:36,2173
3620,16-03-2021_08:16:36,1511
3621,16-03-2021_08:16:36,2082
3622,16-03-2021_08:16:36,1839
3623,16-03-2021_08:16:36,1645
3624,16-03-2021_08:16:36,2164
3625,16-03-2021_08:16:36,1495
3626,16-03-2021_08:16:36,2064
3627,16-03-2021_08:16:36,1818
3628,16-03-2021_08:16:36,1634
3629,16-03-2021_08:16:36,2173
3630,16-03-2021_08:16:36,1553
3631,16-03-2021_08:16:36,2138
3632,16-03-2021_08:16:36,1923
3633,16-03-2021_08:16:36,1772
3634,16-03-2021_08:16:36,2322
3635,16-03-2021_08:16:36,1675
3636,16-03-2021_08:16:36,2222
3637,16-03-2021_08:16:36,1931
3638,16-03-2021_08:16:36,1731
3639,16-03-2021_08:16:36,2211
3640,16-03-2021_08:16:36,1543
3641,16-03-2021_08:16:36,2098
3642,16-03-2021_08:16:36,1831
3643,16-03-2021_08:16:36,1673
3644,16-03-2021_08:16:36,2181
3645,16-03-2021_08:16:36,1517
3646,16-03-2021_08:16:36,2096
3647,16-03-2021_08:16:36,1823
3648,16-03-2021_08:16:36,1654
3649,16-03-2021_08:16:36,2157
3650,16-03-2021_08:16:36,1505
3651,16-03-2021_08:16:36,2083
3652,16-03-2021_08:16:36,1795
3653,16-03-2021_08:16:36,1648
3654,16-03-2021_08:16:36,2160
3655,16-03-2021_08:16:36,1491
3656,16-03-2021_08:16:36,2090
3657,16-03-2021_08:16:36,1806
3658,16-03-2021_08:16:36,1664
3659,16-03-2021_08:16:36,2149
3660,16-03-2021_08:16:36,1481
3661,16-03-2021_08:16:36,2081
3662,16-03-2021_08:16:36,1808
3663,16-03-2021_08:16:36,1673
3664,16-03-2021_08:16:36,2182
3665,16-03-2021_08:16:36,1526
3666,16-03-2021_08:16:36,2134
3667,16-03-2021_08:16:36,1848
3668,16-03-2021_08:16:36,1712
3669,16-03-2021_08:16:36,2205
3670,16-03-2021_08:16:36,1565
3671,16-03-2021_08:16:36,2157
3672,16-03-2021_08:16:36,1874
3673,16-03-2021_08:16:36,1735
3674,16-03-2021_08:16:36,2218
3675,16-03-2021_08:16:36,1584
3676,16-03-2021_08:16:36,2175
3677,16-03-2021_08:16:36,1877
3678,16-03-2021_08:16:36,1753
3679,16-03-2021_08:16:36,2236
3680,16-03-2021_08:16:36,1586
3681,16-03-2021_08:16:36,2188
3682,16-03-2021_08:16:36,1897
3683,16-03-2021_08:16:36,1765
3684,16-03-2021_08:16:36,2240
3685,16-03-2021_08:16:36,1614
3686,16-03-2021_08:16:36,2196
3687,16-03-2021_08:16:36,1926
3688,16-03-2021_08:16:36,1807
3689,16-03-2021_08:16:36,2263
3690,16-03-2021_08:16:36,1639
3691,16-03-2021_08:16:36,2253
3692,16-03-2021_08:16:36,1941
3693,16-03-2021_08:16:36,1793
3694,16-03-2021_08:16:36,2251
3695,16-03-2021_08:16:36,1616
3696,16-03-2021_08:16:36,2217
3697,16-03-2021_08:16:36,1918
3698,16-03-2021_08:16:37,1803
3699,16-03-2021_08:16:37,2163
3700,16-03-2021_08:16:37,1530
3701,16-03-2021_08:16:37,2461
3702,16-03-2021_08:16:37,2963
3703,16-03-2021_08:16:37,3991
3704,16-03-2021_08:16:37,3163
3705,16-03-2021_08:16:37,1823
3706,16-03-2021_08:16:37,2148
3707,16-03-2021_08:16:37,1772
3708,16-03-2021_08:16:37,1654
3709,16-03-2021_08:16:37,2087
3710,16-03-2021_08:16:37,1423
3711,16-03-2021_08:16:37,2041
3712,16-03-2021_08:16:37,1728
3713,16-03-2021_08:16:37,1641
3714,16-03-2021_08:16:37,2111
3715,16-03-2021_08:16:37,1456
3716,16-03-2021_08:16:37,2087
3717,16-03-2021_08:16:37,1764
3718,16-03-2021_08:16:37,1673
3719,16-03-2021_08:16:37,2128
3720,16-03-2021_08:16:37,1477
3721,16-03-2021_08:16:37,2117
3722,16-03-2021_08:16:37,1779
3723,16-03-2021_08:16:37,1711
3724,16-03-2021_08:16:37,2190
3725,16-03-2021_08:16:37,1568
3726,16-03-2021_08:16:37,2221
3727,16-03-2021_08:16:37,1920
3728,16-03-2021_08:16:37,1883
3729,16-03-2021_08:16:37,2381
3730,16-03-2021_08:16:37,1740
3731,16-03-2021_08:16:37,2350
3732,16-03-2021_08:16:37,1959
3733,16-03-2021_08:16:37,1849
3734,16-03-2021_08:16:37,2271
3735,16-03-2021_08:16:37,1603
3736,16-03-2021_08:16:37,2225
3737,16-03-2021_08:16:37,1876
3738,16-03-2021_08:16:37,1803
3739,16-03-2021_08:16:37,2244
3740,16-03-2021_08:16:37,1598
3741,16-03-2021_08:16:37,2224
3742,16-03-2021_08:16:37,1867
3743,16-03-2021_08:16:37,1809
3744,16-03-2021_08:16:37,2258
3745,16-03-2021_08:16:37,1616
3746,16-03-2021_08:16:37,2253
3747,16-03-2021_08:16:37,1894
3748,16-03-2021_08:16:37,1840
3749,16-03-2021_08:16:37,2263
3750,16-03-2021_08:16:37,1628
3751,16-03-2021_08:16:37,2267
3752,16-03-2021_08:16:37,1901
3753,16-03-2021_08:16:37,1856
3754,16-03-2021_08:16:37,2271
3755,16-03-2021_08:16:37,1642
3756,16-03-2021_08:16:37,2269
3757,16-03-2021_08:16:37,1901
3758,16-03-2021_08:16:37,1845
3759,16-03-2021_08:16:37,2257
3760,16-03-2021_08:16:37,1628
3761,16-03-2021_08:16:37,2256
3762,16-03-2021_08:16:37,1872
3763,16-03-2021_08:16:37,1833
3764,16-03-2021_08:16:37,2256
3765,16-03-2021_08:16:37,1615
3766,16-03-2021_08:16:37,2251
3767,16-03-2021_08:16:37,1873
3768,16-03-2021_08:16:37,1817
3769,16-03-2021_08:16:37,2194
3770,16-03-2021_08:16:37,1356
3771,16-03-2021_08:16:37,1900
3772,16-03-2021_08:16:37,1445
3773,16-03-2021_08:16:37,1361
3774,16-03-2021_08:16:37,1771
3775,16-03-2021_08:16:37,1107
3776,16-03-2021_08:16:37,1782
3777,16-03-2021_08:16:37,1370
3778,16-03-2021_08:16:37,1355
3779,16-03-2021_08:16:37,1792
3780,16-03-2021_08:16:37,1137
3781,16-03-2021_08:16:37,1794
3782,16-03-2021_08:16:37,1398
3783,16-03-2021_08:16:37,1421
3784,16-03-2021_08:16:37,1844
3785,16-03-2021_08:16:37,1168
3786,16-03-2021_08:16:37,1856
3787,16-03-2021_08:16:37,1456
3788,16-03-2021_08:16:37,1467
3789,16-03-2021_08:16:37,1886
3790,16-03-2021_08:16:37,1232
3791,16-03-2021_08:16:37,1799
3792,16-03-2021_08:16:37,1411
3793,16-03-2021_08:16:37,1753
3794,16-03-2021_08:16:37,2943
3795,16-03-2021_08:16:37,3155
3796,16-03-2021_08:16:37,2815
3797,16-03-2021_08:16:37,1795
3798,16-03-2021_08:16:37,1447
3799,16-03-2021_08:16:38,1794
3800,16-03-2021_08:16:38,1135
3801,16-03-2021_08:16:38,1795
3802,16-03-2021_08:16:38,1372
3803,16-03-2021_08:16:38,1392
3804,16-03-2021_08:16:38,1827
3805,16-03-2021_08:16:38,1183
3806,16-03-2021_08:16:38,1876
3807,16-03-2021_08:16:38,1467
3808,16-03-2021_08:16:38,1488
3809,16-03-2021_08:16:38,1895
3810,16-03-2021_08:16:38,1267
3811,16-03-2021_08:16:38,1948
3812,16-03-2021_08:16:38,1531
3813,16-03-2021_08:16:38,1558
3814,16-03-2021_08:16:38,1965
3815,16-03-2021_08:16:38,1350
3816,16-03-2021_08:16:38,2047
3817,16-03-2021_08:16:38,1655
3818,16-03-2021_08:16:38,1703
3819,16-03-2021_08:16:38,2137
3820,16-03-2021_08:16:38,1552
3821,16-03-2021_08:16:38,2254
3822,16-03-2021_08:16:38,1834
3823,16-03-2021_08:16:38,1829
3824,16-03-2021_08:16:38,2192
3825,16-03-2021_08:16:38,1522
3826,16-03-2021_08:16:38,2181
3827,16-03-2021_08:16:38,1736
3828,16-03-2021_08:16:38,1753
3829,16-03-2021_08:16:38,2131
3830,16-03-2021_08:16:38,1500
3831,16-03-2021_08:16:38,2184
3832,16-03-2021_08:16:38,1773
3833,16-03-2021_08:16:38,1821
3834,16-03-2021_08:16:38,2203
3835,16-03-2021_08:16:38,1600
3836,16-03-2021_08:16:38,2277
3837,16-03-2021_08:16:38,1871
3838,16-03-2021_08:16:38,1925
3839,16-03-2021_08:16:38,2294
3840,16-03-2021_08:16:38,1690
3841,16-03-2021_08:16:38,2375
3842,16-03-2021_08:16:38,1949
3843,16-03-2021_08:16:38,1990
3844,16-03-2021_08:16:38,2358
3845,16-03-2021_08:16:38,1735
3846,16-03-2021_08:16:38,2416
3847,16-03-2021_08:16:38,1981
3848,16-03-2021_08:16:38,2036
3849,16-03-2021_08:16:38,2370
3850,16-03-2021_08:16:38,1770
3851,16-03-2021_08:16:38,2461
3852,16-03-2021_08:16:38,2021
3853,16-03-2021_08:16:38,2078
3854,16-03-2021_08:16:38,2419
3855,16-03-2021_08:16:38,1814
3856,16-03-2021_08:16:38,2480
3857,16-03-2021_08:16:38,2023
3858,16-03-2021_08:16:38,2095
3859,16-03-2021_08:16:38,2445
3860,16-03-2021_08:16:38,1835
3861,16-03-2021_08:16:38,2522
3862,16-03-2021_08:16:38,2086
3863,16-03-2021_08:16:38,2203
3864,16-03-2021_08:16:38,2647
3865,16-03-2021_08:16:38,2124
3866,16-03-2021_08:16:38,2864
3867,16-03-2021_08:16:38,2432
3868,16-03-2021_08:16:38,2544
3869,16-03-2021_08:16:38,2883
3870,16-03-2021_08:16:38,2283
3871,16-03-2021_08:16:38,3005
3872,16-03-2021_08:16:38,2497
3873,16-03-2021_08:16:38,2606
3874,16-03-2021_08:16:38,2929
3875,16-03-2021_08:16:38,2336
3876,16-03-2021_08:16:38,3015
3877,16-03-2021_08:16:38,2488
3878,16-03-2021_08:16:38,2581
3879,16-03-2021_08:16:38,2868
3880,16-03-2021_08:16:38,2251
3881,16-03-2021_08:16:38,2925
3882,16-03-2021_08:16:38,2384
3883,16-03-2021_08:16:38,2349
3884,16-03-2021_08:16:38,2787
3885,16-03-2021_08:16:38,2686
3886,16-03-2021_08:16:38,4095
3887,16-03-2021_08:16:38,4095
3888,16-03-2021_08:16:38,3136
3889,16-03-2021_08:16:38,2719
3890,16-03-2021_08:16:38,1984
3891,16-03-2021_08:16:38,2618
3892,16-03-2021_08:16:38,2093
3893,16-03-2021_08:16:38,2160
3894,16-03-2021_08:16:38,2434
3895,16-03-2021_08:16:38,1839
3896,16-03-2021_08:16:38,2495
3897,16-03-2021_08:16:38,2003
3898,16-03-2021_08:16:39,2113
3899,16-03-2021_08:16:39,2397
3900,16-03-2021_08:16:39,1795
3901,16-03-2021_08:16:39,2460
3902,16-03-2021_08:16:39,1953
3903,16-03-2021_08:16:39,2033
3904,16-03-2021_08:16:39,2301
3905,16-03-2021_08:16:39,1701
3906,16-03-2021_08:16:39,2367
3907,16-03-2021_08:16:39,1898
3908,16-03-2021_08:16:39,2010
3909,16-03-2021_08:16:39,2314
3910,16-03-2021_08:16:39,1747
3911,16-03-2021_08:16:39,2448
3912,16-03-2021_08:16:39,2006
3913,16-03-2021_08:16:39,2143
3914,16-03-2021_08:16:39,2415
3915,16-03-2021_08:16:39,1792
3916,16-03-2021_08:16:39,2426
3917,16-03-2021_08:16:39,1892
3918,16-03-2021_08:16:39,1981
3919,16-03-2021_08:16:39,2242
3920,16-03-2021_08:16:39,1645
3921,16-03-2021_08:16:39,2307
3922,16-03-2021_08:16:39,1804
3923,16-03-2021_08:16:39,1935
3924,16-03-2021_08:16:39,2205
3925,16-03-2021_08:16:39,1616
3926,16-03-2021_08:16:39,2290
3927,16-03-2021_08:16:39,1799
3928,16-03-2021_08:16:39,1929
3929,16-03-2021_08:16:39,2205
3930,16-03-2021_08:16:39,1637
3931,16-03-2021_08:16:39,2307
3932,16-03-2021_08:16:39,1835
3933,16-03-2021_08:16:39,1947
3934,16-03-2021_08:16:39,2238
3935,16-03-2021_08:16:39,1649
3936,16-03-2021_08:16:39,2314
3937,16-03-2021_08:16:39,1819
3938,16-03-2021_08:16:39,1943
3939,16-03-2021_08:16:39,2208
3940,16-03-2021_08:16:39,1639
3941,16-03-2021_08:16:39,2306
3942,16-03-2021_08:16:39,1795
3943,16-03-2021_08:16:39,1927
3944,16-03-2021_08:16:39,2190
3945,16-03-2021_08:16:39,1616
3946,16-03-2021_08:16:39,2279
3947,16-03-2021_08:16:39,1769
3948,16-03-2021_08:16:39,1911
3949,16-03-2021_08:16:39,2160
3950,16-03-2021_08:16:39,1587
3951,16-03-2021_08:16:39,2263
3952,16-03-2021_08:16:39,1749
3953,16-03-2021_08:16:39,1905
3954,16-03-2021_08:16:39,2162
3955,16-03-2021_08:16:39,1591
3956,16-03-2021_08:16:39,2256
3957,16-03-2021_08:16:39,1741
3958,16-03-2021_08:16:39,1907
3959,16-03-2021_08:16:39,2171
3960,16-03-2021_08:16:39,1595
3961,16-03-2021_08:16:39,2270
3962,16-03-2021_08:16:39,1763
3963,16-03-2021_08:16:39,1947
3964,16-03-2021_08:16:39,2187
3965,16-03-2021_08:16:39,1633
3966,16-03-2021_08:16:39,2309
3967,16-03-2021_08:16:39,1811
3968,16-03-2021_08:16:39,1983
3969,16-03-2021_08:16:39,2186
3970,16-03-2021_08:16:39,1614
3971,16-03-2021_08:16:39,2310
3972,16-03-2021_08:16:39,1795
3973,16-03-2021_08:16:39,1969
3974,16-03-2021_08:16:39,2192
3975,16-03-2021_08:16:39,1508
3976,16-03-2021_08:16:39,2256
3977,16-03-2021_08:16:39,2096
3978,16-03-2021_08:16:39,3205
3979,16-03-2021_08:16:39,4095
3980,16-03-2021_08:16:39,2359
3981,16-03-2021_08:16:39,2455
3982,16-03-2021_08:16:39,1666
3983,16-03-2021_08:16:39,1813
3984,16-03-2021_08:16:39,2002
3985,16-03-2021_08:16:39,1443
3986,16-03-2021_08:16:39,2114
3987,16-03-2021_08:16:39,1579
3988,16-03-2021_08:16:39,1762
3989,16-03-2021_08:16:39,1979
3990,16-03-2021_08:16:39,1435
3991,16-03-2021_08:16:39,2127
3992,16-03-2021_08:16:39,1585
3993,16-03-2021_08:16:39,1781
3994,16-03-2021_08:16:39,2000
3995,16-03-2021_08:16:39,1456
3996,16-03-2021_08:16:39,2143
3997,16-03-2021_08:16:39,1612
3998,16-03-2021_08:16:39,1803
3999,16-03-2021_08:16:40,2004
4000,16-03-2021_08:16:40,1474
4001,16-03-2021_08:16:40,2192
4002,16-03-2021_08:16:40,1678
4003,16-03-2021_08:16:40,1906
4004,16-03-2021_08:16:40,2143
4005,16-03-2021_08:16:40,1633
4006,16-03-2021_08:16:40,2322
4007,16-03-2021_08:16:40,1747
4008,16-03-2021_08:16:40,1931
4009,16-03-2021_08:16:40,2106
4010,16-03-2021_08:16:40,1533
4011,16-03-2021_08:16:40,2192
4012,16-03-2021_08:16:40,1651
4013,16-03-2021_08:16:40,1866
4014,16-03-2021_08:16:40,2055
4015,16-03-2021_08:16:40,1511
4016,16-03-2021_08:16:40,2189
4017,16-03-2021_08:16:40,1649
4018,16-03-2021_08:16:40,1881
4019,16-03-2021_08:16:40,2069
4020,16-03-2021_08:16:40,1525
4021,16-03-2021_08:16:40,2219
4022,16-03-2021_08:16:40,1680
4023,16-03-2021_08:16:40,1875
4024,16-03-2021_08:16:40,2073
4025,16-03-2021_08:16:40,1554
4026,16-03-2021_08:16:40,2246
4027,16-03-2021_08:16:40,1681
4028,16-03-2021_08:16:40,1918
4029,16-03-2021_08:16:40,2101
4030,16-03-2021_08:16:40,1572
4031,16-03-2021_08:16:40,2253
4032,16-03-2021_08:16:40,1682
4033,16-03-2021_08:16:40,1921
4034,16-03-2021_08:16:40,2103
4035,16-03-2021_08:16:40,1575
